RR_mean,RR_std,HR_mean,HR_std,RMSSD,QRS_mean,QT_mean,ST_amp_mean,ST_slope_mean,ST_amp_max,ST_amp_min,label
0.7459401709401708,0.1498519979906012,83.88244001322444,17.262519071496193,0.2248899479370467,-1062.8787878787878,-551.7676767676768,1.0819858678152672,5.990095725535405,1.7668672212866001,0.5423777490161882,1
0.6390873015873015,0.18383008784411492,101.14927806078244,25.894263876313822,0.22825023962712188,96.875,2051.7361111111113,1.1312401288812177,0.8706031891057324,1.5541201023423328,0.2884031459966387,1
0.5600694444444445,0.18690717754269176,118.51737908511821,35.384558126944896,0.13140973525016525,-108.53174603174602,1347.0238095238096,1.0846368942137017,2.1555833748619415,1.5784819050511507,0.08679212827002511,1
0.6537037037037037,0.2685249041386314,107.07531264548874,39.52168231932374,0.35415849663779175,122.83950617283952,2318.20987654321,1.0363021848757397,1.7015899392305809,1.5883702876985455,0.31939430677051706,1
0.7898148148148149,0.13739630083894167,78.7786698050077,16.298131271214007,0.21067039324581877,-244.16666666666669,758.0555555555555,1.1267887003782369,4.673480838371602,1.656849195157725,0.6335512281821505,1
0.8232323232323232,0.008314180622805223,72.89086409570929,0.7355800202109126,0.014433756729740666,162.84722222222223,2575.0,1.186383023168299,1.4072639577532235,2.0524500484028465,0.5537266899814959,1
0.6005555555555555,0.17057214299843393,106.36519405069099,23.402685546613924,0.23768499710399163,99.07407407407408,1990.7407407407409,0.7900780665670102,1.9460825815505203,1.6079246867905026,-0.0435939854482546,1
0.6662698412698413,0.1712751003208636,95.93375524312872,23.39094643322392,0.252386519777943,100.92592592592592,1236.7283950617284,0.9258601994082727,3.5295372867291688,1.8394601690544015,0.21884992204856155,1
0.634126984126984,0.18686895151162128,101.59879422509496,24.430812761277465,0.2504317259907699,141.41414141414143,1612.8787878787878,0.8969313243879306,2.320509183527447,1.6676364156185133,-0.022573528674639354,1
0.5684027777777778,0.1818035793755597,115.47469910274991,32.192025547433566,0.1235387844999301,-291.45299145299145,160.25641025641022,0.9735422048991651,5.977670586786909,1.4565825496964018,-0.09126002439014197,1
0.6922619047619047,0.25052233478122826,98.47094044515757,35.205585964725955,0.4084350707609966,130.05050505050505,1607.828282828283,1.0520462205208383,9.114912420590464,1.5721270834294054,0.24190141896813439,1
0.744675925925926,0.16903205103295066,84.88367559678879,19.067358730519317,0.27070930856153264,170.7070707070707,962.878787878788,1.0063332537893126,1.1974432595207987,2.0640635339555384,0.18983210487147534,1
0.7003968253968255,0.16705925040801656,90.29658933874249,19.544825990183032,0.27534942834933884,-154.04040404040404,1379.040404040404,1.1857019317563768,3.0924338735897483,1.6246402593569975,0.2697607013172359,1
0.7520833333333333,0.2174845821364774,86.22406732480515,22.666624717533246,0.2950441767222883,101.62037037037037,248.37962962962965,0.954328596135752,8.232746315865237,1.6554863172596581,0.0626912985354886,1
0.6407407407407408,0.23773335225921927,105.51132787557181,34.32022676990183,0.3450335783572427,-637.6262626262625,890.6565656565657,1.1384200059215828,2.150695280414607,1.9089290764751499,-0.023753586858812903,1
0.6083333333333333,0.22142217092644037,109.92859083305493,33.056207655391766,0.25881973325267854,141.4351851851852,1465.2777777777776,0.9148394848002698,1.517945789766517,2.7587655909927964,-0.24492786986787232,1
0.775,0.2589151155051343,85.9330100149516,25.765356636276007,0.37313734935206033,146.46464646464645,1015.4040404040405,0.9265276243855971,1.0463916170800127,2.62190582673345,-0.307105240797378,1
0.5562091503267974,0.1457692184357157,114.4230585908219,26.223250039588653,0.15033078239602982,73.85620915032679,611.6013071895425,1.0162691704811269,2.8194824142341726,1.6104755420042984,-0.13654322531320734,1
0.44936868686868686,0.0650041644730309,136.84759103986508,23.458285376297912,0.08258704634140877,-343.38624338624334,-292.85714285714283,0.6108925294006208,9.082713112599869,1.5964790694896482,-0.7119634233004157,1
0.5905555555555556,0.239765403175001,119.73099512979888,45.74777275523464,0.14307578066306567,94.44444444444443,801.7857142857143,0.872893846623714,4.263956754867532,2.0860769059691617,-0.21886387471331237,1
0.8104166666666667,0.01027683929649218,74.04797321629177,0.9451079029817298,0.014841096217085967,80.55555555555556,189.8148148148148,1.0963253432161568,13.824707744550913,1.6425579164554218,0.08324461562816998,1
0.8070707070707072,0.018325053087400737,74.38095177839317,1.6751128709359075,0.033042714592695324,85.35353535353535,222.2222222222222,0.8966838743700858,10.334497221922174,1.3827656105231962,0.07992824437163251,1
0.7068376068376069,0.14990348028161515,88.94515692338807,19.279164548065303,0.23430271519058207,104.7008547008547,504.0598290598291,0.8766752032902982,5.468239731392042,1.5036626684953214,0.08743732381015112,1
0.4223484848484849,0.05411955522290204,144.5209686122877,19.39272734724383,0.07886382715410228,-304.5321637426901,-231.43274853801168,1.228198259935461,15.772419849815755,1.7537578830355138,0.04958304747885284,1
0.7113247863247865,0.21923326834183113,91.82432498356587,24.516513819461977,0.351878044834022,138.88888888888889,1476.2626262626263,0.9923943232831468,1.9139140517963755,2.2301456982861283,-0.021443084860182204,1
0.525,0.23805524096043154,127.42528109149143,31.458159321080167,0.27291136551255235,-209.54861111111111,-197.22222222222223,0.8039517620786125,7.504669079605231,1.858552418927176,0.06349570075315003,1
0.7104700854700854,0.1751107160493079,89.50028466322209,20.692073156909004,0.2843957025657387,88.6574074074074,1473.148148148148,1.022292942023488,0.8523181223037746,1.8228244987797266,-0.5532044208912207,1
0.6722222222222223,0.1543247794948613,93.83258287916883,20.09417665546885,0.2979372739072536,101.28205128205128,428.4188034188034,0.9638726498008194,12.360479667210846,1.6734594776308391,-0.475462006211657,1
0.6399305555555556,0.15764309526938095,99.28720892911103,23.072096935551563,0.22764223609497644,132.93650793650795,525.3968253968254,0.8245981055467679,4.531318935792285,1.6576351621908452,-0.6623149137506805,1
0.6085069444444444,0.46244522192915777,134.06209686449782,59.14999183766173,0.4104756099178714,47.74305555555556,109.02777777777777,0.030611392736021002,0.5909992225851198,0.1683373820933436,-0.10023032458826175,1
0.5064327485380117,0.20400086284117505,138.09872198750338,53.02857387016459,0.3033513369142812,38.01169590643275,108.47953216374268,0.020753325636043186,0.25971129357318073,0.05996215388304226,-0.09957903752257283,1
0.6325925925925926,0.2749550405946807,113.82768193166591,49.354079540369646,0.4112518527857997,41.2962962962963,119.44444444444444,0.007106990755047799,0.15959907877512375,0.07296595979521103,-0.058870328558387086,1
0.5707407407407408,0.306870682718647,123.20002686765613,39.623297520690045,0.460503520142346,47.22222222222222,128.14814814814815,0.028611391847631118,0.47494245168163157,0.1276698029973467,-0.01788347447302885,1
0.5609375,0.011388412506974461,107.0068972847921,2.1245710950695544,0.01990202338907842,179.27350427350427,870.2991452991453,0.05630184687339447,0.6146755539575861,0.1833828567900999,-0.051668191904217564,1
0.557843137254902,0.013071895424836588,107.61562633293592,2.4975607356725544,0.023753654689565352,-386.3636363636364,1917.6767676767677,0.052170422312655,-0.06099274598790463,0.11880381784480848,-0.02982990729718671,1
0.5593137254901961,0.015884168378450633,107.36100625598287,3.0537950977306627,0.027225410810989798,168.62745098039215,309.15032679738556,0.07022005981667805,0.7947473531543973,0.18705439731680945,0.014024874941896082,1
0.5617647058823529,0.012109155106960062,106.85553682673167,2.2856299841165084,0.02028205814793087,177.5793650793651,962.8968253968254,0.0762610759894978,0.10808216274678299,0.18569381786418526,-0.0033426200327432154,1
0.5606209150326797,0.00953890164661857,107.05478508057313,1.7983604102969015,0.014796719272682298,154.27350427350427,1503.8461538461538,0.05760413550199498,0.1735964627093209,0.22019590621915686,-0.10124766635895366,1
0.5553921568627452,0.01014915042697354,108.06807706857047,1.9871892169347443,0.01703867242553511,143.75000000000003,1904.6296296296296,0.07716036666134951,0.13953803236545123,0.19920172851883672,-0.033580553116709155,1
0.570486111111111,0.014562650677438024,105.24167720147037,2.6730793458729005,0.019707219123882177,146.36752136752136,1727.7777777777776,0.06573593623544216,0.046483278331814135,0.17883780031548804,-0.10857718623122037,1
0.5643790849673203,0.015516854697396474,106.39228535686192,2.9386830396567847,0.024679660616551177,149.57264957264957,1366.2393162393162,0.0626047511902838,0.5776705075031112,0.1276994142153306,-0.038669918179551066,1
0.5633986928104575,0.011362966438374957,106.54036519905564,2.17428448264335,0.018543097115025928,162.03703703703707,1524.074074074074,0.0876118038703117,0.3023447101559271,0.18120972215019276,-0.07309107297231177,1
0.5575163398692811,0.012774392343589585,107.67668308149696,2.4672394719497635,0.02228723129983502,122.4537037037037,1340.5092592592591,0.0395361120147493,0.042166481731868155,0.11330162431509028,-0.09369462939437112,1
0.562091503267974,0.01151004331069041,106.7885264245674,2.1657108206043225,0.018569086051556865,164.64646464646464,1645.2020202020203,0.05882920006575033,0.2835587742686354,0.11550559356570889,-0.0159906938499087,1
0.5586805555555556,0.015617282044478483,107.48007324505548,3.012429583990073,0.026410809608899362,167.73504273504275,1187.6068376068376,0.05736235295896024,0.07960439828946164,0.19371751288949024,-0.051654340448456126,1
0.5624183006535948,0.011033949683747785,106.72285756396644,2.0750400423625432,0.01899276990441296,-394.2129629629629,997.4537037037038,0.047738258412929314,0.5218280698406643,0.15279273081864864,-0.08157094861323255,1
0.5686274509803922,0.016930501760769445,105.60880683620648,3.0785784395548283,0.027551158923440802,186.36363636363637,2440.151515151515,0.13158661689488033,0.0593883221761159,0.2662981220104331,0.048806039788383604,1
0.5668402777777777,0.013119992798547964,105.9067989794052,2.458021054247389,0.020873418226954724,153.70370370370372,1112.0370370370372,0.07160235063037025,0.11980996353588921,0.2668168969483011,-0.08272979312658169,1
0.5663398692810456,0.015710085414015577,106.02590176521308,2.9730954664304665,0.023323410588537027,-416.8518518518519,-192.22222222222223,0.06768521269606632,0.8494000929689227,0.10213904104650945,0.02770355896855392,1
0.5665032679738562,0.01471314272482407,105.98451223023338,2.758756755369976,0.02517301244498866,184.25925925925924,1642.361111111111,0.09588535852830204,0.025844845190435006,0.2376704449310681,-0.00891801903625633,1
0.5651041666666666,0.011946412547804696,106.22213635719021,2.2247062993437767,0.01962875609516867,157.14285714285714,447.420634920635,0.0807551669542698,0.8718753010136745,0.21186709563530576,0.037955430290121606,1
0.5645424836601307,0.011805484881168915,106.32720530775673,2.2225418760727633,0.015881384202818427,-383.3333333333333,-147.04861111111111,0.0737167959402808,0.29831855638708416,0.19819794867539287,0.002168412698720701,1
0.5606209150326799,0.010272048134314846,107.06042948462161,1.9785410158037813,0.01685369597154389,197.008547008547,1633.7606837606838,0.08687863083112767,-0.09565839401030633,0.1398304706145193,-0.048280995288513706,1
0.5632352941176471,0.013185778432569932,106.58509692487017,2.464815409535064,0.021805997872371627,188.65740740740742,1738.8888888888887,0.09389050109630585,0.10273758400747807,0.21521993097774644,-0.043190105102102416,1
0.5580065359477125,0.010561674909275995,107.56388895819788,2.022180038193155,0.015387860976500196,157.05128205128204,1515.1709401709404,0.010516415922640696,0.12224710186526024,0.1167150666213756,-0.11165600853145541,1
0.5628472222222222,0.024490861075808824,106.81352668252515,4.899748614781878,0.03957724124659723,-32.07070707070707,1490.909090909091,-0.2159025854317168,0.4313630789028013,2.4133154214039,-2.683555483276536,1
0.57859477124183,0.0185915834018059,103.80767829148697,3.3687196176280967,0.024036205972051097,-392.8240740740741,1187.9629629629628,0.08598472395085849,0.289173475346006,0.29640033344589956,-0.10183889664702339,1
0.5873263888888889,0.015433822723922191,102.22751834255041,2.6532834221460253,0.024938195208292713,202.1825396825397,858.7301587301588,0.12882962772947665,0.19553324049623452,3.476980771922085,-2.85818038698057,1
0.6563492063492065,0.29767327548296957,99.6502106356721,18.275472374775998,0.4602917238394992,170.2380952380952,734.9206349206348,0.1466755503254917,0.41724512953543363,0.8258230239895894,-0.4540717581764284,1
0.5576797385620915,0.017633437008436222,107.69626707203777,3.406389014453684,0.025297230000120807,157.8125,616.3194444444445,0.059925059616123356,0.28521154865935205,0.22261228019299312,-0.16913432954998545,1
0.5486928104575164,0.013206011340638394,109.41410295111712,2.631446820648859,0.02159487750759196,169.84126984126985,592.65873015873,0.07548589243145806,0.918764221913755,0.5394296296900547,-0.1279788476255091,1
0.5477124183006536,0.01303712696426059,109.60872192586217,2.6129776705088523,0.019666392025703187,155.78703703703704,1801.3888888888887,0.13016759456333374,0.33574514459930466,0.32116234092438045,0.0019992585864646584,1
0.5519607843137255,0.01839523876608823,108.8325660991535,3.8827539499328494,0.025430324199445218,-397.22222222222223,1591.9191919191917,0.09477454380470413,0.07047090428300988,0.21867403999908253,-0.005458305245652495,1
0.5492283950617285,0.012346643480845446,109.30177862344503,2.56471726590875,0.014275660431491966,-386.1111111111111,1014.1666666666667,0.04563261610636625,0.035615270984013514,0.16641638986839774,-0.11526278841219872,1
0.5557189542483659,0.012031737119284371,108.01882843662715,2.336695828879123,0.02048316833854531,198.2323232323232,1592.6767676767677,0.032381539226711116,-0.027724390475554975,0.18863908577081603,-0.10017431525954273,1
0.5638888888888889,0.011947673982003623,106.45112430123075,2.227924794982745,0.018689029814063247,183.8888888888889,2638.611111111111,0.07633370151955572,0.034611531657461427,0.20661391494934656,-0.11333107328606173,1
0.5544117647058824,0.011154279846977784,108.2667240348045,2.183187609613151,0.01961728734975769,190.65656565656565,1129.2929292929293,0.06155698469514428,1.1748966191049632,0.1698734744931909,-0.02438064333136758,1
0.5519607843137255,0.01312489256733542,108.76511514764843,2.597217635311216,0.02250257186947173,185.55555555555557,2190.5555555555557,0.04098446628187835,0.40429791944852556,0.14227447717094027,-0.07049579366644049,1
0.5640873015873017,0.013867614091275043,106.43247267663332,2.684118268828176,0.022593059637412486,-383.33333333333337,1162.9629629629628,0.0757648918206884,0.18375987844233044,0.14456892524711543,-0.02890126525499276,1
0.8522727272727274,0.014055474798056324,70.41938341286941,1.1755375064884803,0.018044868632124154,105.55555555555556,290.90909090909093,0.6093065537698384,3.289626183593766,0.6586398545969678,0.5748865194725483,1
0.8594444444444445,0.012372809695177829,69.82695040957134,1.0010495306560712,0.017543791964348538,108.88888888888889,296.3888888888889,0.6205249407048173,3.310145102897703,0.6629988435635228,0.5939555275151008,1
0.8482323232323231,0.011801334793482738,70.74898667059179,0.9810898175094533,0.012999287729775091,99.24242424242424,284.3434343434343,0.6134754474322494,3.316199576852756,0.6671715604771118,0.5815176587702574,1
0.8378787878787879,0.008963757247120618,71.61762255509252,0.7683649941984395,0.011111111111111108,103.7878787878788,289.39393939393943,0.6089375067723121,3.2824236491092176,0.6408781307704762,0.567502812501917,1
0.8199494949494949,0.018608215582768216,73.21302342466039,1.665501178737801,0.01734721666221777,105.55555555555556,288.3838383838384,0.5906816010050245,3.233111899684278,0.6629543206932941,0.5449866163836298,1
0.8252525252525252,0.022797310713721958,72.75973826623674,1.9814040165926907,0.012266334536566443,104.54545454545455,283.3333333333333,0.5694998553464014,3.188065804529751,0.6272910219383953,0.5419927036793735,1
0.8722222222222222,0.011422406947372359,68.8017283362462,0.9102687356861369,0.015860113804022438,100.75757575757575,285.60606060606057,0.6029465466806788,3.2687062433573884,0.6263521718121176,0.5686765996266994,1
0.7087962962962963,0.21609859448345076,100.1548917855989,52.57446043410553,0.17402727897418982,84.95370370370371,257.63888888888886,0.5916212167132063,3.3744060193201073,0.9313374997772166,0.05784753308267876,1
0.8373737373737373,0.018439531579321905,71.68775322648716,1.5973610148575281,0.02100852266798782,95.45454545454545,256.06060606060606,0.6013893330265707,4.001703567990543,0.6570472279112949,0.5003912137460921,1
0.85,0.01381292356684579,70.60679847453466,1.1424080946192454,0.01900292375165227,105.80808080808082,264.64646464646466,0.5674193707392216,4.27485314049184,0.6316597894079271,0.4121767315479956,1
0.848989898989899,0.01559126165700317,70.69593227268984,1.291418303411694,0.020030840419244404,92.92929292929293,266.16161616161617,0.6139312120055732,3.6552633035963313,0.7045074594246867,0.5572089085445616,1
0.8239898989898989,0.015546206031940782,72.84215391413674,1.3638332573873038,0.019325030145473415,79.79797979797979,238.13131313131314,0.7193321903359496,4.9154492672998025,0.9071289470512736,0.602770174706181,1
0.748611111111111,0.16652965046980886,89.68190367972453,44.186467897421274,0.20486507015520478,80.0925925925926,232.4074074074074,0.7522563044361346,5.37177650179487,0.8841178437213215,0.5911741860143935,1
0.6982905982905983,0.2025201456146869,98.86744445953022,46.060591622768925,0.26415678409679755,79.7008547008547,212.60683760683756,0.6760558711336437,6.3175936225244875,0.9603889576557286,0.127470841588394,1
0.6918650793650795,0.18338582787928026,95.8139273459532,34.43607801053598,0.2299200901688408,86.9047619047619,227.57936507936506,0.5511550322320229,4.119701720728927,0.7381456267765725,0.240400017809912,1
0.8146464646464647,0.019928706724190753,73.6954531325512,1.7939980141436849,0.012360330811826107,108.83838383838383,290.1515151515152,0.5781630153625671,3.193153961034064,0.6117938292962586,0.5310539996776337,1
0.853030303030303,0.00950917696149633,70.34627512738354,0.7892330263304803,0.010206207261596588,106.06060606060606,288.8888888888889,0.6011968828501901,3.288018426060492,0.6630491069261946,0.551087413719348,1
0.8477272727272727,0.01779900018859202,70.8091537131916,1.5090760819152609,0.02574507024607449,106.31313131313132,285.8585858585859,0.6072983909108282,3.386696255003058,0.6626510553294448,0.579959314172864,1
0.8477777777777776,0.0055277079839256464,70.77626445006143,0.4602667929403557,0.007965115988002404,103.05555555555557,274.99999999999994,0.612231928880619,3.9321123128016473,0.7074509113853147,0.4891161028531913,1
0.8424242424242423,0.012199871039576912,71.23793291708515,1.0296884731301865,0.017010345435994275,105.05050505050504,287.6262626262626,0.6146687460867981,3.36959524473037,0.6545175408295625,0.5567897825929401,1
0.8340909090909091,0.009916239351551455,71.94484822646972,0.8616295217038356,0.015614965913950226,108.08080808080808,287.12121212121207,0.6133610127903961,3.4254729004678213,0.6699004325843413,0.5493045450136462,1
0.8376262626262624,0.012100150051223177,71.64602663954611,1.040832372217054,0.01712337223046939,102.77777777777779,272.4747474747475,0.5916671292397929,3.6398718653827205,0.6349576542694855,0.5005957258065633,1
0.8414141414141415,0.009055768220727825,71.31667742125832,0.757681947665066,0.013494397557212344,103.53535353535354,284.5959595959596,0.598139089234996,3.3086990520755872,0.6806355496240353,0.5276019152358294,1
0.8469696969696969,0.012616157572522031,70.85650799701259,1.0555197357957429,0.019184774055368926,96.71717171717172,277.27272727272725,0.6221764148223307,3.451996737345215,0.6629157826823457,0.5539864184273025,1
0.7111111111111111,0.21823343226729558,100.98066798993194,56.07612854546452,0.1435020898601783,90.3846153846154,254.9145299145299,0.620614970729991,4.013802755507227,0.9044430449348585,0.13351859159298463,1
0.7363425925925925,0.15952870053023982,88.86714348299297,34.74348498983035,0.12477533120459594,84.49074074074073,240.2777777777778,0.6314057054362927,4.201189823919706,0.810846036635258,0.32427439745853637,1
0.8011574074074073,0.02275004899073698,74.95438591844207,2.2100035978030936,0.031815175423143396,78.93518518518519,262.037037037037,0.6746199079840937,3.8267930905231977,0.7868040068172847,0.45074711560477876,1
0.7497685185185184,0.15913724735118748,86.79020477168483,32.4342285688666,0.19594657876164884,83.33333333333333,262.5,0.6747515186814419,3.985249265320802,0.9650923362192154,0.4782040901494904,1
0.8123737373737373,0.0187787802450285,73.89704613986623,1.7053951107465288,0.014299486306926377,106.56565656565658,281.5656565656566,0.6030659018909018,3.5179033764077148,0.6871749543253267,0.35593841397125336,1
0.8583333333333333,0.01512202517331299,69.92477410825637,1.2410527886237734,0.019856740000735007,104.7979797979798,285.35353535353534,0.6445319925198777,3.570139122628521,0.7007875599367653,0.5913407341355885,1
0.8457070707070709,0.02738007306753494,71.0238875202887,2.3910025920611524,0.03515837184954831,104.04040404040403,285.1010101010101,0.6290492656345814,3.4767566655489577,0.6880810537853295,0.5932978084570556,1
0.8550000000000001,0.010153148268053937,70.18528103159443,0.8288862719823066,0.016433554953054517,105.27777777777779,292.5,0.659924157941778,3.525081640820408,0.7143591916426831,0.588708003946307,1
0.8669191919191918,0.015143095303600949,69.23199017911568,1.2245106261902416,0.02246396291017301,109.84848484848484,294.69696969696975,0.6271071181210259,3.3954268342630027,0.6689231821816765,0.5654781905209816,1
0.8464646464646464,0.02161710561518454,70.93202096565254,1.9181175496425689,0.020107734523170957,106.06060606060606,289.64646464646466,0.6659187017899699,3.6316800563774447,0.7064283405283821,0.6378994644998249,1
0.8547979797979797,0.022724466717912395,70.24332738261893,1.9310875794702405,0.027060175284350122,101.76767676767676,283.33333333333326,0.6380554346809408,3.455109360152855,0.7096584387507676,0.2099979678004961,1
0.8633838383838384,0.013072908187418974,69.50988204021706,1.0487041411487064,0.01734721666221777,104.7979797979798,290.1515151515151,0.6446070975047177,3.4834122336029805,0.6733783478157448,0.6069746796201918,1
0.7921296296296297,0.02458067398603386,75.81727755050115,2.324713775381952,0.025389778513689037,131.94444444444443,212.7314814814815,0.6653963012934135,5.705885141651149,0.8423029319263947,0.030586557963730485,1
0.7757575757575758,0.023927350676514473,77.41805894715668,2.4099755119239954,0.03431427014818279,608.3333333333333,240.27777777777774,0.5618344462254536,0.888642766187193,0.8459817420490028,0.06023801223877703,1
0.7190170940170941,0.15640354242747498,92.74959105274753,44.15764691250098,0.19719613807685987,-620.8333333333334,-512.2685185185186,0.6536490587116881,6.482402054176695,0.9737775005528658,0.07038173417557061,1
0.6050347222222222,0.19543946490541625,114.40054172997876,48.72033791954735,0.23939653211455958,64.8148148148148,90.55555555555556,0.7946584337475947,6.231389282508426,1.4869867150821605,0.13406504349717163,1
0.6644841269841271,0.17948454811162426,99.43803103038893,34.58969326995739,0.2128485075810662,83.13492063492063,200.79365079365078,0.8081656593939411,7.855186321169709,1.2979819755887256,0.05808506585733214,1
0.4445767195767196,0.2608203325620435,159.17600943056487,49.175458915706436,0.35779999068380836,-223.45679012345678,430.55555555555554,0.5508127997599158,1.3480246827877451,1.2992321750574103,-0.35467873422868657,1
0.3962962962962963,0.1282265335090503,162.5313873864893,37.21899483634697,0.16365228970900306,-119.17989417989418,913.7566137566139,0.5496598841644217,1.2600750370171059,1.5117868718859315,-0.39452104821516476,1
0.36255144032921816,0.08073582203548371,172.9688316846285,34.01335190289689,0.09941513439043849,-100.46296296296298,474.0740740740741,0.717668545831151,1.6158997693162827,1.2118720335714248,-0.06616189954063723,1
0.34503968253968254,0.0680873635695594,179.76230389821555,30.41401598934893,0.08200763065748184,222.22222222222226,1506.4327485380118,0.5363634797330787,1.5372408983112804,1.7913433259315048,-0.09821311579941991,1
0.3918981481481481,0.08001059547033222,159.77520494640632,33.43966626603064,0.09478660667601187,-310.5820105820106,86.64021164021165,0.5473002488182288,0.42678612145692507,1.1175941556458617,-0.08872610807086881,1
0.35138888888888886,0.10299339245256896,180.6861457522936,36.07453574433592,0.10991251665243784,229.36507936507934,-41.798941798941804,0.8836517394533028,2.98932313910825,1.2402851233711842,0.16592353225589618,1
0.3438492063492063,0.07762299345636402,182.31414581666513,35.42916120169,0.10425339325207823,-77.00617283950618,1925.9259259259259,0.6526714548888348,1.7955391773418994,1.7433799577871536,-0.39957028396340316,1
0.35689300411522634,0.08409586100195567,176.78490458110238,37.69466404848225,0.1122907466173346,-277.2486772486772,464.4179894179895,0.7709824080396663,2.073540779041161,1.5091834440500975,0.0578602074673511,1
0.3828888888888889,0.07408153666112816,162.672518565809,31.38220350119566,0.091549096882043,490.4320987654321,898.1481481481483,0.5872430840957399,0.6400201971139183,1.2291834235151433,-0.033779431305551944,1
0.3846666666666667,0.08648171147562406,163.79759322248105,35.61277220539483,0.0862305026569912,1428.3333333333335,733.0555555555555,0.5371866894989246,0.32708209799443844,1.2285501467411875,-0.1003811527283793,1
0.40243055555555557,0.06772554387153694,153.88292624444384,28.83771185633664,0.08491849838969168,394.94949494949503,157.32323232323236,0.5459069697415282,1.548954634798209,1.100882200646777,-0.043368418395488134,1
0.3737777777777777,0.07599171494801747,167.30030835905438,33.81390101368986,0.09189085939935629,1199.2690058479534,1066.0818713450294,0.5677703999437924,0.7114218326228011,1.1241450710925205,-0.03966956773293592,1
0.3761752136752137,0.07055594705508801,164.96614816318197,29.758091067913504,0.08908485343261845,-377.9040404040404,42.04545454545455,0.5982026800832484,3.418659791896184,1.0700833209778868,-0.0547376085573158,1
0.372008547008547,0.09744761138163255,169.90297978964094,34.60446964915291,0.13291601358251257,140.47619047619048,-17.460317460317487,0.7175567940718671,3.140660114600956,1.2829073510129403,-0.13542483837925542,1
0.3632478632478632,0.07583935080030853,171.59412882218496,31.42495642850647,0.10822216518364913,419.86111111111114,1279.4444444444446,0.6641475884688185,2.4645253970909686,1.222610877243573,-0.10739224475173312,1
0.4119212962962962,0.07813854477921009,150.74269009894937,27.564932254749756,0.09909006297157222,126.57004830917876,520.7729468599034,0.5056485534589507,1.1255467027032762,1.1489584107483424,-0.08569668735642326,1
0.36858974358974367,0.06477813526481212,168.19000803203835,31.350045165715155,0.10804091588917987,-329.4117647058824,1070.424836601307,0.6426351048795952,1.9098124473934812,1.0790862868381723,-0.27923641529523885,1
0.3797777777777778,0.08161759674705837,164.68952072673946,32.042291719464764,0.12490994698568676,-103.26797385620915,1427.4509803921567,0.6305659316931002,1.1503096943949183,0.9770794479051144,-0.1509632868596103,1
0.363477366255144,0.07680425308543609,172.13175391560932,34.29748406007964,0.08349521313993964,379.2824074074074,382.9861111111111,0.6663016166112133,1.335582949900954,1.4397649148336076,0.020690409620674532,1
0.3604938271604939,0.08164382443257692,174.09938344477033,34.6123415829118,0.13434777021530117,47.916666666666664,1711.111111111111,0.5512386393060691,0.6817532420689338,1.4152058341187748,-0.7624926721533836,1
0.34494047619047624,0.06410012341638248,179.85498494565795,32.38089708115371,0.09793244407809541,-926.8115942028983,21.618357487922697,0.4899311874545401,0.5198943700196564,1.2803853282903421,-0.0440320830088648,1
0.4210858585858586,0.06958903679779344,146.56653372317243,25.038288147011535,0.10795620151806061,65.55555555555554,1091.25,0.692976206491099,0.7655950437788855,1.2067217373293642,-0.2851985209884721,1
0.39488888888888896,0.08621921529693803,158.33087825652223,30.264032498231824,0.1293320824522683,141.66666666666669,929.4973544973543,0.5340771189611205,0.7747935387044872,1.0740254103594136,-0.1112027887838908,1
0.34547325102880655,0.05745292972165047,178.3394086474614,28.372937824367565,0.0773454099520183,-349.074074074074,905.8201058201058,0.6553180925849635,0.7389097217366261,1.2060753929762504,0.05152530941931189,1
0.3887777777777777,0.0788633761562706,160.76235462692713,32.29106085138044,0.09298988838343546,113.01169590643276,1267.251461988304,0.6484427121495934,3.162865175496667,1.1289667037874918,0.17155409789582496,1
0.38266666666666665,0.06985116452275641,162.00292614772707,28.944949941813633,0.08874228361516605,-232.89473684210526,1819.8830409356724,0.6961598573088322,0.947660594147676,1.1643090406465917,-0.10135243219903212,1
0.4056712962962963,0.11271549766904515,156.7330509091455,33.56719116337193,0.17782211856453153,-294.59064327485385,614.0350877192983,0.5294194967883413,0.9635588026197048,1.205637503576499,-0.04165136847209738,1
0.3831111111111111,0.07126684336325669,162.00373829397842,29.3234445516679,0.11197580205970208,-360.0308641975309,1247.222222222222,0.6119440373240781,0.5901163863892406,1.1691985247819712,0.08683078320976645,1
0.3585390946502058,0.07191659742753664,173.38066362621714,31.033822865049263,0.09165533470489892,-2.5000000000000058,1130.1388888888891,0.6977852987890922,0.6218314474807066,1.087830801592698,-0.031252099849410526,1
0.40845410628019324,0.10588075465430835,156.44271983344538,37.976631409692914,0.15666205487875096,84.72222222222223,1927.7777777777778,0.9739269949405319,0.4469992358976764,2.3404744378512325,-0.17262552862875796,1
0.4072916666666666,0.09902044834181885,155.21792474363477,33.84815423077449,0.1320642095656572,-501.4550264550264,-212.3015873015873,0.6141119221207739,6.185260584393567,1.128836767526649,0.05919109549558976,1
0.9266666666666667,0.03191907204938495,64.82444319183682,2.2156767348820967,0.04046624700631882,71.94444444444444,291.1111111111111,0.34564557512228056,1.5421010949482654,0.4603557565897858,0.14599938738068585,1
0.965432098765432,0.018384287175105467,62.17108095332341,1.194471331611082,0.02637060770284379,61.72839506172839,242.9012345679012,0.3784842625138696,2.4362267197204606,0.4845163577713472,0.2048475631029759,1
0.945,0.014153043558729985,63.506335561037055,0.9530311867418423,0.014814814814814828,73.33333333333334,284.7222222222223,0.37152647090446467,2.1522548991808734,0.4649256808196439,0.20450396684586494,1
0.9169444444444445,0.018939882148589757,65.46257232465508,1.348850782036607,0.03360230983634086,73.05555555555556,290.83333333333337,0.3771806422406064,1.8220214922661142,0.49368469103757295,0.20392402493365702,1
0.9271604938271606,0.02363480212231683,64.75600149121054,1.6591854168183884,0.03506772548042386,65.12345679012346,254.62962962962968,0.31987130240415707,1.9730162297350609,0.44363132332093397,0.19050076845882713,1
0.9330555555555555,0.028258343026746704,64.36462844764853,1.9747860790685288,0.0325789112699244,68.61111111111111,301.1111111111111,0.342757500466585,1.4537656613194183,0.45773039079056127,0.16355535404714583,1
0.9349999999999999,0.023901805293665514,64.21273861037976,1.6281981104922703,0.036134845002014575,73.05555555555557,289.16666666666663,0.36874318831838665,1.805250551563054,0.493657531969935,0.22360715370035136,1
0.9373456790123458,0.01348874900210625,64.0240435001852,0.938716716013337,0.02292718613780438,68.82716049382717,298.7654320987654,0.3665449022566332,1.5876010351642018,0.43347607159214335,0.24115043435941283,1
0.9402777777777777,0.017579185924774157,63.83345269866787,1.2048962135086903,0.030174390253333926,53.61111111111111,293.3333333333333,0.3900068259917586,1.6265611265913704,0.4413998099728679,0.3468557826174117,1
0.9555555555555555,0.016459619291325157,62.809298960429516,1.080014918943652,0.021516574145596743,69.44444444444444,282.09876543209873,0.3855806713850935,1.9416120539411525,0.4767960324837578,0.1972136719459565,1
0.9688888888888888,0.020853693754581612,61.955121244271496,1.3252824048265333,0.036039815659312135,64.72222222222223,298.3333333333333,0.36205140842291433,1.5382039906867953,0.4360184692116419,0.18167265045747122,1
0.9342592592592592,0.018975834751777016,64.24885065709188,1.3219727188831205,0.02952818281315176,65.12345679012346,264.81481481481484,0.3607320051430575,2.0509421759061324,0.48334596541253244,0.22595868550868048,1
0.9391666666666667,0.021424933553637424,63.91954834449149,1.4521786352803279,0.035669185711589335,76.38888888888889,307.22222222222223,0.34333968126384884,1.466255468490269,0.46992548429909886,0.18577063510565384,1
0.9455555555555556,0.022229165581936182,63.489436703501156,1.4755568803261623,0.034583054438857605,65.27777777777779,283.05555555555554,0.3782381044878006,2.0739244976242484,0.45375919351002175,0.18745426700878606,1
0.906111111111111,0.02837687286471587,66.2821755921606,2.0809889727643562,0.028658865815818838,66.11111111111111,283.33333333333337,0.34139694572112733,1.8759515632826322,0.451914344838242,0.16080023455955,1
0.9317901234567901,0.023244654794768796,64.43241200134932,1.613208005706426,0.034610932762158646,63.271604938271594,275.92592592592587,0.34543816891105195,1.8911545975003539,0.4251802080135104,0.19204151361521765,1
0.9330555555555555,0.025833333333333357,64.35497149113287,1.8106549801895604,0.047592952873690406,77.5,302.7777777777778,0.37978359601707024,1.738989944394158,0.4701072256197049,0.20001464313791276,1
0.9136111111111112,0.02381286352238642,65.71801270583452,1.7102433579880048,0.025187908349510044,62.5,276.66666666666663,0.34855389115844276,2.0266041605839775,0.45654705509408783,0.17302900966231494,1
0.9544444444444444,0.01695127366932483,62.8835812782401,1.1141915644183367,0.025340615154451854,63.61111111111112,288.88888888888886,0.39143296204541406,1.8065336560838148,0.4860676296979778,0.18563792752937208,1
0.9592592592592593,0.026707787225659183,62.59554923761157,1.6994377325800827,0.04449866484333554,77.77777777777777,311.72839506172835,0.35755729214281184,1.5010121076959988,0.4728269728234802,0.16211444675974546,1
0.5549019607843138,0.2908485716363071,139.89740511454943,63.62474701963305,0.25659510786980344,63.0718954248366,141.33986928104574,0.260457440156209,3.4974022458601306,0.5976762386830665,0.004259834595726299,1
0.9013888888888889,0.015774745405000765,66.58453491730145,1.1767808139551013,0.02353382412433118,85.00000000000001,301.6666666666667,0.38303720389851065,1.731249985445747,0.47065357477552455,0.02294157555269824,1
0.7929292929292928,0.169191165383516,81.57908075151452,27.991327666664578,0.14337746951816416,69.19191919191918,280.30303030303037,0.3387366806208648,1.6217507744771524,0.4678131306619845,0.10562291457609142,1
0.6934523809523808,0.26855237523412473,112.23824520169309,67.31024405919693,0.13334668736544988,69.04761904761905,257.3412698412698,0.3074094136661422,1.7347735458630897,0.5127317624612668,0.030299437827295966,1
0.8092592592592592,0.16188484916623536,79.04116336304762,24.516058935769973,0.13705608885673348,84.72222222222223,269.212962962963,0.3240079688453797,1.5301427385255522,0.4503738455580526,0.14989888940935264,1
0.942283950617284,0.024906470372632113,63.72103260631319,1.7397372976556722,0.043501277120460626,89.81481481481482,313.8888888888889,0.3265661621896327,1.424210552702368,0.44550389354236286,0.14481883381282534,1
0.8217592592592592,0.05493675438326653,73.33068372814064,4.741089190333897,0.03796706884259461,62.96296296296296,234.95370370370367,0.30145412419313755,2.6972473144520994,0.4346836141472037,0.14620008579883415,1
0.758760683760684,0.15668790452008188,87.22317253957968,40.58379810541291,0.2002056555813271,70.72649572649573,256.4102564102564,0.33793580148645813,2.1625644354884623,0.5610676291279039,-0.04037232286773083,1
0.8775000000000001,0.025833333333333323,68.43588982281204,2.0326864193888206,0.034731480247242666,58.88888888888889,258.8888888888889,0.39388489411742483,2.5071286855240094,0.4994104859788001,0.15587562346925296,1
0.9660493827160495,0.02399480459947753,62.1469369192825,1.5428790809537234,0.03793472301041015,55.24691358024691,295.06172839506166,0.4207593535300233,1.749848331894565,0.466608353778115,0.26501942224392133,1
0.8638888888888888,0.030174390253333943,69.53869084443524,2.443863713996812,0.027708246310083347,61.36363636363635,271.7171717171717,0.40006820530293274,2.111855873217758,0.535555882740078,0.1622708752803899,1
0.5888888888888889,0.24972399888133287,123.24789893673696,52.318440111870125,0.20352728050427302,52.08333333333333,150.86805555555554,0.291439457186053,3.177744587299233,0.604882788362646,0.027983591531079332,1
0.840151515151515,0.025468771077016086,71.48163774767532,2.176380011740925,0.04056887148212694,71.46464646464646,279.0404040404041,0.39018137053460217,1.9671164942072714,0.5189612085227874,0.126864856441466,1
0.7280092592592592,0.22201511857805784,93.5515818321431,36.66242121665982,0.23576921175616047,84.02777777777779,268.28703703703707,0.3238622460496258,2.112313518905242,0.5428490504859032,0.12638667251018454,1
0.8547979797979799,0.025433693559624593,70.25408141743841,2.086889742119468,0.04262780348117445,72.47474747474747,224.24242424242422,0.25914748909077834,2.593849770764098,0.4910549106067934,0.14165361275273308,1
0.8507575757575758,0.1311109554714178,72.94769813191796,16.180746940443257,0.222595173153218,61.86868686868688,266.4141414141414,0.34615548846194527,1.890680490583378,0.47976257195736216,0.1925332865776142,1
0.8704545454545454,0.017698399462560854,68.95793746411067,1.3985178372625557,0.0243432247780074,2469.097222222222,170.13888888888889,0.180443842474416,-0.08059656657516276,0.43606101953865,0.06012786835663654,1
0.8533333333333333,0.011506841765115539,70.32517941621474,0.9404109489503001,0.01388888888888889,1206.1728395061727,231.79012345679016,0.17882619400264,-0.20025009557123558,0.37563020181500395,0.028390464891612253,1
0.875,0.021154925294066408,68.61102514436486,1.6384066522877532,0.026902888917340547,479.62962962962973,-589.8148148148148,0.15164012903463833,-0.4245150879941539,0.22191391985867082,0.03882056575187676,1
0.8902777777777777,0.011931517552730303,67.40679113176466,0.9025397456694538,0.019641855032959676,2625.0,278.47222222222223,0.14510101412469623,-0.10614750757597918,0.20164614887064708,0.06286087157292239,1
0.8894444444444444,0.010153148268053934,67.46663507458666,0.7706257041268878,0.015242664475142892,2763.4259259259256,287.037037037037,0.24921228017259586,-0.23121836109921276,0.33229467190301015,0.12684189226089598,1
0.8636363636363636,0.011988967141888095,69.48715451184196,0.9704755542041741,0.0184256932797522,3138.888888888889,279.76190476190476,0.1497114629003662,-0.04622558933550102,0.4177046931235239,-0.09373048375759822,1
0.8797222222222221,0.15779171495564012,70.8498328933113,15.638550259772845,0.2767202090091616,2513.1944444444443,277.7777777777778,0.21186816719433338,-0.38820121840834254,0.3023615977374841,0.10084776574591106,1
0.8654040404040404,0.01616950565008296,69.35588425107572,1.2904827531480558,0.024938195208292737,2236.111111111111,228.17460317460316,0.2163200719447171,-0.17225780744617897,0.34232382179074505,0.10942357315374038,1
0.8811111111111112,0.014315665251916816,68.11391799311606,1.1129909460606822,0.02324055629261323,4700.0,291.1111111111111,0.23049584253073818,-0.05276293192744661,0.3256366749419738,0.09332779261255612,1
0.8729797979797979,0.014939595411867734,68.75019125693741,1.1734185726117359,0.02300697693427633,2300.0,263.33333333333337,0.18368621794940504,-0.13631938407806393,0.2796820294019329,0.0977639128140845,1
0.8780555555555555,0.012756625003561138,68.34714447284367,0.9870058026109401,0.019444444444444424,896.604938271605,220.06172839506175,0.22333891441556927,0.5376707166536954,0.35703880985196523,0.08884346133264083,1
0.8772222222222222,0.018749485589651338,68.42856939881378,1.4437675116095983,0.02193096163393891,1119.4444444444443,266.6666666666667,0.16692358322402331,0.02527777406406971,0.2768818295631071,0.038007572422700496,1
0.8684343434343433,0.01047903733396283,69.0999665652654,0.8384195477362866,0.014829275350043475,905.1587301587302,-648.8095238095239,0.19426948560899995,-0.1705053260951046,0.3983704651223688,0.0591323788101254,1
0.8866666666666667,0.028322437992290873,67.73626662345099,2.102556158339699,0.034952937200327584,1726.388888888889,256.01851851851853,0.19200754368173387,-0.19527290810735243,0.3861901307314206,0.05061698926486459,1
0.8684343434343436,0.011681852026485227,69.102402801886,0.9331927138076074,0.01607755125387531,718.2098765432098,171.60493827160494,0.20094675115469007,0.24666719855320995,0.32233236204773164,0.10484624126455329,1
0.8855555555555554,0.012533904636309424,67.7676753820779,0.9607705533660695,0.017543791964348535,1159.7222222222222,236.80555555555557,0.21938225991657753,-0.14514400838855418,0.40049595553558004,0.09969772301115883,1
0.8808333333333334,0.017631778969509276,68.14475723696243,1.371420485132852,0.022509714409524487,1552.7777777777778,200.0,0.1808609067431619,0.3336049767993375,0.2562582732345546,0.020710155166042646,1
0.8583333333333335,0.017963049741190663,69.93356322946019,1.4651571317151102,0.030046260628866606,528.2407407407408,-602.7777777777778,0.15247601579653847,-0.37776682265374273,0.3465615916126257,0.08303316788792742,1
0.8631313131313131,0.022130204343643094,69.5607531509072,1.8113988164518922,0.034212931639338175,2196.759259259259,221.29629629629628,0.15584028133007685,-0.12657637492373444,0.3019407625246484,-0.02573934820495491,1
0.8585858585858586,0.017018778227771956,69.90994690741759,1.3922431731902056,0.02061927062210625,2923.3333333333335,236.11111111111114,0.17566814896300476,-0.01773400938602278,0.4405861148382948,0.004958630840817074,1
0.8717171717171717,0.019347455868058548,68.8643633233096,1.5641643297941341,0.024040218359354236,2298.4126984126983,267.46031746031747,0.17154613533759153,-0.11559129427813734,0.3544672427239165,0.025611592062386834,1
0.8803030303030304,0.020324753442281705,68.19417489615488,1.552407768134383,0.017213259316477415,863.1944444444445,-694.0972222222223,0.2311719377889901,-0.048679560825312745,0.3808051339587904,-0.009701763881139538,1
0.8574999999999999,0.010019271553817474,69.98039492143016,0.8173466423845576,0.017048104295853694,4737.037037037037,277.77777777777777,0.13243634028855478,-0.060310561998756645,0.16653467561403762,0.0884546531240616,1
0.8765151515151518,0.015459826126276737,68.47441396680775,1.2201646041601932,0.018571682944940868,504.5138888888889,201.73611111111111,0.17522059664633827,1.1458538425288962,0.26047735721606413,0.09460776050728695,1
0.8780555555555555,0.013289859682117435,68.34837418025029,1.028723594155837,0.017543791964348545,486.1111111111111,233.64197530864197,0.19391131657710045,0.6646466245772037,0.2848951487827575,0.09410255971830064,1
0.8762626262626262,0.015231271565656785,68.49376449965881,1.2164369122951726,0.023846862257038606,952.7777777777778,247.22222222222223,0.22130537782052517,-0.3786972931185764,0.368039782398654,0.12089849491353767,1
0.8691666666666666,0.011616957592403589,69.04395590012015,0.9215757460483377,0.015326801256710031,2515.8730158730164,251.5873015873016,0.19150117191490437,-0.13173556554146668,0.3930828175025915,0.04598518579900326,1
0.871969696969697,0.016894675438058313,68.83534232554172,1.3221417228484977,0.023223949962309417,3066.666666666667,243.33333333333334,0.07026188283496193,-0.04384572170024832,0.26789451296416394,-0.03670061090857313,1
0.8613888888888889,0.013969212178533504,69.67320140754691,1.125562675775382,0.019902023389078396,1767.5925925925922,209.72222222222226,0.1362602625935859,-0.20685444709088527,0.300784140854301,-0.034484947464383825,1
0.8755050505050506,0.009160786437988401,68.53940441803105,0.7199598763668558,0.014829275350043471,2080.5555555555557,266.6666666666667,0.19227983621076547,0.2818393378328448,0.28559886534345974,0.1272773615232842,1
0.8605555555555556,0.008678055195451857,69.72949242687112,0.7031915539654756,0.011821430865559004,2207.777777777778,287.2222222222222,0.21399049532866252,-0.11969427674141139,0.33628277063982737,0.07734074850143892,1
0.8575757575757575,0.015939125088948982,69.98879343679701,1.2984496461339599,0.023782060881115542,1865.4761904761904,212.30158730158732,0.2040133742474179,-0.21651052460772477,0.3463585817177104,0.1068871649916346,1
0.8300505050505051,0.019455919479048706,72.32437283434666,1.6904882328142112,0.025534411542847545,881.6666666666667,183.61111111111111,0.1560071169645525,-0.04952332188316526,0.2371195963690755,-0.05966617184348913,1
0.8169191919191919,0.015689115724251575,73.47389489683907,1.4178198670366826,0.0189215404065849,1064.236111111111,156.59722222222223,0.1656860384426279,-0.3316106739976339,0.37233001066543386,0.030494391745177152,1
0.8393939393939394,0.010843894218981761,71.49206027892832,0.9224261558823005,0.01563965362251028,334.8484848484848,164.64646464646464,0.17350416213601527,-1.0167634884106656,0.21103429758792286,0.1262353064197203,1
0.8469696969696969,0.013937014875299634,70.86004026922086,1.170240842951102,0.018901139818004457,195.7070707070707,186.86868686868684,0.21439271930364556,1.402135347190491,0.3261011709059894,0.06274767056889734,1
1.0064814814814815,0.023497365815647275,59.64586388056551,1.3815805682963358,0.03251305530755453,113.88888888888889,281.17283950617286,1.1010800338274604,5.9415694242466035,1.3055249566963754,0.06395785661159036,1
1.0083333333333335,0.01972895903024311,59.52687562008422,1.1626458815145952,0.03260192942862645,198.76543209876547,259.87654320987656,0.6848239469615962,4.142699671965368,1.2401417708024995,0.060785686922052495,1
0.9999999999999998,0.01833239803076233,60.02017038322341,1.1003014120650971,0.025477689344227956,136.11111111111111,289.8148148148148,1.002057839376645,5.155083497142139,1.2140129155634187,0.12511950571253033,1
1.0108024691358024,0.019397847361074885,59.380818315356855,1.1486591843992044,0.027428357858515946,254.93827160493825,312.03703703703707,0.7532296150994013,2.92439355539417,1.3211063723587695,0.04616947106874278,1
1.0061728395061729,0.025180343277001412,59.66901821851596,1.4833298374562174,0.03487466535969368,84.87654320987654,307.7160493827161,1.2980830837381598,5.838623986483153,1.3860019235360705,1.2052292699906304,1
1.0170138888888889,0.034845268090995286,59.06543504395495,2.0200307297101876,0.044518787029624564,309.7222222222222,305.9027777777778,0.5324220093040868,1.8081822616303895,1.3103914708284685,0.05041313191549734,1
1.011111111111111,0.023715274953455035,59.37307988455406,1.3825422516539416,0.031365527196211745,-862.8472222222222,-701.0416666666666,1.1476359382359682,6.132485470449457,1.341527942333303,0.0841948684086277,1
1.0101851851851853,0.02463728647342604,59.42991573671868,1.4301045140695994,0.035775685756642375,151.23456790123453,318.2098765432099,1.045089898917479,4.489943977316513,1.406550070264805,0.07345734447627693,1
1.0141975308641975,0.02288533939742795,59.190038295111805,1.3283058412884972,0.03452723026293351,89.81481481481481,305.55555555555554,1.315079456469569,6.099826281804482,1.3580958697390402,1.2494924094329685,1
1.0151234567901237,0.0211594277790156,59.13182481295285,1.2338322053571669,0.027533649446665313,174.38271604938274,272.5308641975309,0.9847105565399428,5.462152409139109,1.2986743663399172,0.12494687184163374,1
1.00679012345679,0.02400671170695069,59.629993969688925,1.4539629042241573,0.03380739290177247,112.03703703703704,308.641975308642,1.1114166547202755,5.420811258112486,1.3209835048052596,0.07230162196665968,1
1.0145061728395062,0.02399480459947757,59.17555419037629,1.41569359499077,0.03730660005156475,170.67901234567898,304.9382716049383,0.9681064024969012,4.41373462433094,1.2894805763381458,0.04009085565931826,1
1.0135802469135802,0.028311067396218855,59.24356061542494,1.6997397639251512,0.04718135486517511,169.44444444444446,320.67901234567904,0.8270694703547834,4.107948119167187,1.3467683021628065,0.0673811459823332,1
1.0021604938271604,0.03092586432067986,59.92729789805737,1.836694911908188,0.04776041351124831,159.25925925925924,310.18518518518516,0.9056968466588636,4.22627746352206,1.3367671532856675,0.018732594638855946,1
1.0138888888888888,0.023651925508231128,59.21097811233004,1.410284860044779,0.03900210277874798,169.09722222222223,277.77777777777777,0.8132659355957427,3.734801183586991,1.3461222206954646,0.04225833399567745,1
1.0145061728395062,0.023562141585175684,59.174217980277945,1.3842168831103885,0.03354964535883654,102.77777777777777,321.2962962962963,1.1475470752505557,5.063928399046034,1.3557421911013907,0.04699968911255513,1
1.0049382716049382,0.02027662679710721,59.72955999969044,1.2095494798132633,0.026407157419210504,101.54320987654322,335.80246913580254,1.2439328907345684,5.337757379446349,1.3056018773587839,1.172778705412291,1
1.0058641975308642,0.021374431719976272,59.67739745265598,1.2800874097014774,0.02980453296371518,97.53086419753087,302.1604938271605,1.3004438986129323,6.969423010907931,1.4066885049975826,1.2107106880969172,1
1.0148148148148148,0.025221923096067113,59.16069128765326,1.4732408130931707,0.03233457424117449,213.58024691358025,283.95061728395063,0.7023953053632808,4.405114912462578,1.294629604070503,0.033129827524218336,1
1.0046296296296295,0.018049619157053647,59.74278928701613,1.0736829864781305,0.02393567769390847,93.51851851851853,271.60493827160496,1.1498055075676965,7.249018908463177,1.262955068783833,0.9727806900914636,1
1.0098765432098766,0.024883511568822705,59.44967855328256,1.4805674318893112,0.035464292596676966,178.7037037037037,310.18518518518516,0.9451328709866451,4.942582792535129,1.280132228252633,0.06755530064452682,1
0.9802469135802467,0.025973648024653382,61.25207503904619,1.62331811331829,0.03883925403919321,125.0,173.76543209876542,1.048792146262822,12.423219178645022,1.2755521626625765,0.030804670743975273,1
0.9932098765432098,0.02183737401396136,60.439452227289216,1.3311253922000987,0.034708330554443834,102.46913580246913,169.7530864197531,0.9723083761035729,12.317588319162393,1.2197897845690588,0.0561224830607889,1
1.010185185185185,0.02407407407407406,59.42904034503358,1.4266053250969792,0.03279366375866,94.13580246913581,326.5432098765432,1.2250816426975222,5.279640610184857,1.2808099170488303,1.1699773887446028,1
1.009259259259259,0.016972502573910458,59.46630272796574,0.9967478878608713,0.022438186696393688,218.5185185185185,315.7407407407407,0.8713321120092137,3.575865803593084,1.3170255170271923,0.08039401306276539,1
1.009259259259259,0.015438270370863934,59.463368886935946,0.9039997691453545,0.02275829112246377,234.87654320987653,315.74074074074076,0.8966266575606665,3.604676793587471,1.370742955343146,0.08629536097531557,1
1.0052469135802466,0.024894993617377507,59.72352025454992,1.4817470186469048,0.035559353095811416,161.41975308641975,326.2345679012346,1.0401847185905542,4.148450695237761,1.3683549248806162,0.04462907154506418,1
0.9916666666666666,0.02566001196398332,60.544512329143245,1.5582352028455806,0.036535962327683,312.34567901234567,174.07407407407408,0.6192023539413083,5.915342126682197,1.3690635332835872,0.03483656639431992,1
1.0043209876543209,0.0207089335768102,59.7671531141078,1.226965137339118,0.026057865332352423,137.34567901234567,305.2469135802469,1.0525394573009392,6.335293611876287,1.3979125177168454,0.037853314018527484,1
0.9987654320987654,0.027842859287268942,60.122041577616834,1.7186253184323776,0.04261648886823964,188.88888888888889,175.30864197530866,0.8994815554282201,9.858431513776356,1.408831756105741,0.0448180041005401,1
1.0012345679012347,0.02195483857256632,59.95485881863816,1.3153864380541158,0.029691053231155454,100.61728395061728,307.40740740740745,1.2398138749660572,6.344315557333176,1.3707878556420188,1.0750488516179704,1
0.9876543209876544,0.01870787958110089,60.77160554251978,1.1408152568752021,0.03034968525473905,98.14814814814815,172.22222222222223,1.3016927181839757,17.867151344986283,1.4161836178131806,1.1233756372035388,1
0.9944444444444446,0.02555958100341155,60.375332469515,1.56189503403095,0.0383645203248142,102.77777777777779,171.60493827160494,1.0492252441342762,13.184835379741973,1.2733481030639513,0.027938037071944852,1
0.991358024691358,0.026786140683638406,60.567284645006644,1.6380463294872172,0.0410016372753486,200.0,186.41975308641975,0.8733622176165876,9.804317790277075,1.377009177701237,0.026318896111330953,1
1.006172839506173,0.021863531788178837,59.659996778058,1.2931388650204194,0.03318834207041259,100.61728395061726,326.54320987654324,1.2812145180728642,5.686683939432921,1.3770439430320363,1.117298016426337,1
1.0037037037037038,0.023424278964210205,59.8116850359321,1.4180749446174037,0.033434453103363085,98.76543209876543,320.3703703703704,1.258098284146015,5.716777790199829,1.3293118842613758,1.1470570614586058,1
