RR_mean,RR_std,HR_mean,HR_std,RMSSD,QRS_mean,QT_mean,ST_amp_mean,ST_slope_mean,ST_amp_max,ST_amp_min,label
0.6174074074074074,0.0175525860904781,97.25879502047378,2.753462950139736,0.0231455024943137,85.92592592592592,202.2222222222222,0.2427908005259036,2.121783469155422,0.2826652356974432,0.1779207674486665,0
0.6270370370370372,0.0162752389205332,95.75281372762292,2.4929504007642653,0.0212718401098223,82.03703703703704,205.3703703703704,0.2569926551186143,2.131835790510669,0.2892819795849265,0.203619008803928,0
0.643452380952381,0.023770636232301,93.37623654218324,3.5013748750470777,0.0294476695540622,85.31746031746032,208.53174603174605,0.2656314956961655,2.17396865242655,0.3421457134285578,0.2007682540715725,0
0.6322222222222222,0.0181103158198483,94.98327257283326,2.7939293133329346,0.0208267185265835,-551.1904761904763,-420.0396825396825,0.2686822581380746,2.1203325429580397,0.3055977004908459,0.2306392431681053,0
0.642037037037037,0.0165386026383452,93.5134747237187,2.3661835631013424,0.0217458869187622,86.4814814814815,212.59259259259255,0.2628204079554385,2.139278152232049,0.3211152747496473,0.2221787303397769,0
0.61,0.0193197057122147,98.45783687034,3.0705751172169493,0.0331010424661471,86.48148148148147,211.29629629629636,0.2665173845430357,2.214120474632469,0.3131636494728551,0.2068448588798673,0
0.628888888888889,0.0176208350301707,95.48048879168572,2.6471947291565714,0.0226033780310089,88.14814814814814,210.7407407407408,0.2368912142518458,1.9953785080280184,0.3291619714139588,0.19886390398521,0
0.5914930555555555,0.022598138810544,101.58596470930834,3.870409428868858,0.0208734182269547,85.76388888888889,196.52777777777777,0.2789486468841834,2.892387650656114,0.4018617406479062,0.2157190340419196,0
0.5871527777777779,0.0398307932515708,102.65843380907404,6.943836907473534,0.036997664257272,78.99305555555556,207.29166666666669,0.2475518948894763,2.015661881303735,0.4220997424966767,0.1827928332701633,0
0.6015625,0.0182935371417724,99.83375202346473,3.077385617360844,0.0229622162363652,90.79861111111111,213.19444444444449,0.2543381979851851,2.247265875915549,0.357558442358554,0.1941655018788233,0
0.6137037037037038,0.0271117688647188,97.96133277987856,4.404910866803888,0.032223590556606,90.92592592592592,205.5555555555556,0.2516574334607157,2.2571012782280517,0.3182017866750927,0.2048783929481869,0
0.6261111111111111,0.0207820356104792,95.93394912715884,3.144477107035996,0.0259518955345118,85.0,210.0,0.2636174743537668,2.1846424361463272,0.3188317549852784,0.2113697114072417,0
0.9703703703703704,0.028054180384339,61.88338441719715,1.7757594531748055,0.0518838773454245,80.24691358024693,324.07407407407413,0.7273826002220379,2.9318175168734446,0.9161774493580528,0.3729825727789009,0
1.019135802469136,0.2882336004768264,61.81968392211928,10.469003357002247,0.3176109823528008,57.09876543209876,308.0246913580247,0.806833234551202,3.2176862883331108,0.8511583586501762,0.7371536970633626,0
0.9372222222222222,0.0160150392282217,64.0377535163097,1.0994106426197363,0.0249485066394583,62.5,319.16666666666663,0.8170556872683864,3.1829722113394707,0.905761026843334,0.7415791534064488,0
0.9555555555555556,0.0175193406744671,62.81192983262712,1.1583308081555137,0.0225239926947594,74.38271604938272,326.5432098765432,0.6904406736544213,2.7209525280679125,0.8189816427530504,0.3529869080235273,0
0.9677777777777778,0.0280596806648319,62.04917114429325,1.775934022405001,0.0493093590951642,67.77777777777777,322.22222222222223,0.5941994740818091,2.3177905210845964,0.7549034202314933,0.2678659303731802,0
0.9407407407407408,0.0361229800057984,63.87264582205511,2.425714273822266,0.0476390913503958,63.27160493827161,317.9012345679012,0.7647276745204996,3.0032753042167792,0.8460951232881669,0.7255180270508919,0
0.9080555555555556,0.0383986962870252,66.20124179794973,2.9835070647430197,0.0437640825855424,73.33333333333334,309.1666666666667,0.7355111275757118,3.1088541143930515,0.8957110128558445,0.289729712754232,0
0.9225,0.0460717703663681,65.20971055590715,3.389627296301724,0.0748111476915709,77.49999999999999,315.27777777777777,0.6761081168192739,2.7946626869363054,0.8804643709616853,0.3743520257387238,0
0.9152777777777776,0.018685588954269,65.58163710539506,1.3607803991806606,0.0233509633572564,80.83333333333333,317.5,0.7577098532442175,3.1487896465637744,0.9995954702597316,0.2587691492480939,0
0.9286111111111112,0.0349172301731245,64.7036057112336,2.4202934594844328,0.0521979192202051,83.05555555555556,298.6111111111111,0.6743256072924806,3.320339547189259,1.0142533207328055,0.1759755854254054,0
0.9783950617283952,0.0209422166094905,61.35281645743999,1.3036702766206352,0.0298045329637151,72.8395061728395,321.2962962962963,0.7953636910244715,3.141038791313965,0.9551417412002652,0.3122872583183127,0
1.0003086419753089,0.0178799362443953,60.00031646328273,1.0536700623083346,0.0268598327858524,75.0,333.3333333333333,0.8491719995927364,3.2872610549111143,0.9359071169360658,0.7776994423435624,0
0.6212962962962965,0.0216040564193924,96.68823757077904,3.337374865822289,0.0275986286498255,74.44444444444444,277.5925925925925,0.3865640424920407,1.917357272451181,0.4902783678409554,0.2158556127859355,0
0.6064236111111112,0.0311296873794548,99.20502579918652,5.157135537153694,0.027962349760262,72.56944444444446,280.2083333333333,0.3828090649302502,1.8445659688219116,0.4529123447854794,0.2757874308919481,0
0.6567460317460317,0.0318054998563712,91.58368435279692,4.638028995599003,0.0273145130119982,76.19047619047618,274.2063492063492,0.4033267548190934,2.04271668000118,0.4650506146143713,0.3499099247908142,0
0.7743055555555555,0.1967362459308476,80.45045899354237,11.686862762432185,0.3070109964872355,76.62037037037037,274.537037037037,0.3978298485694219,2.0170015169174422,0.4592118328195483,0.300081192252153,0
0.6431481481481481,0.0473458802126843,93.81448715001622,7.118355549143946,0.0286663436674309,75.55555555555556,274.81481481481484,0.4832912538610496,2.4862728990797858,0.707452777517851,0.3413691716855119,0
0.6022222222222222,0.0487202478589788,100.21808673167298,7.274847339005984,0.0307891503829695,386.7063492063492,811.7063492063493,0.4648344368382218,1.6203179612223215,2.193117350520566,-0.6556043888547997,0
0.6694444444444444,0.021284791003022,89.71745870533816,2.8599561210268085,0.0269755965831368,86.11111111111111,275.59523809523813,0.3849757179558734,2.0520406235625708,0.6845017143886193,0.1957910160399613,0
0.6888888888888889,0.0204994614618999,87.17494824475025,2.6284246742528,0.0320649899461533,75.42735042735042,276.2820512820513,0.3756253919011699,1.871379744630364,0.4418763923085307,0.2923873368146431,0
0.6876984126984127,0.013757885574095,87.28256322108511,1.7506081816491283,0.0197323015053251,-593.1623931623932,-413.67521367521374,0.3428282817884789,1.5463791653734489,0.4834155425083011,0.1092097449262409,0
0.6797619047619048,0.0212440616100383,88.35209444036046,2.7495694251825724,0.0225009232690175,79.56349206349206,275.3968253968254,0.3988926520159546,2.034920370948909,0.5631971367740911,0.3264355421703968,0
0.6664682539682542,0.016911700267746,90.08489844363508,2.2910370648729472,0.0242161052418926,83.73015873015872,278.76984126984127,0.4134967426168652,2.125808778150318,0.4709458327483591,0.3539099312791324,0
0.668452380952381,0.0386130686790665,90.0532851842053,5.094341888169229,0.0260806332400007,85.7142857142857,272.8174603174604,0.4451097472912003,2.3929282964640524,0.6180237389778285,0.3837300852737065,0
0.647420634920635,0.0230372437729663,92.79239496133776,3.288354956470461,0.036955929710139,86.90476190476191,199.60317460317464,0.7046244351020524,3.890142181186505,1.0430394712315734,0.0855030948795435,0
0.6266666666666666,0.022425000745512,95.8673670664432,3.430866823907221,0.0309231139614416,76.48148148148148,199.8148148148148,0.767244861312392,4.687705378468838,1.050596761587312,0.0945111553458574,0
0.6246296296296296,0.0201298936914091,96.15765295539632,3.126950896713858,0.0235234132306014,122.59259259259257,203.70370370370372,0.4881143544095074,2.3999319275502446,0.9594972354049952,0.0798787905455485,0
0.611111111111111,0.0244486528363917,98.33467493843403,3.826116644953785,0.0332339789146192,85.37037037037037,191.66666666666669,0.6366178002134457,3.58198925927651,0.9755783625187116,0.1100515315778114,0
0.6327777777777778,0.021111111111111,94.92729763005494,3.2191649511593297,0.0286567289283822,106.29629629629632,197.5925925925926,0.5607073883532255,2.901305848494204,1.0200541014080595,0.0892448775432991,0
0.6266666666666667,0.0254547124680534,95.90105194527231,3.8522311082097342,0.0485855942098749,65.74074074074073,182.4074074074074,0.5504732339363982,4.360987198754819,1.0222784684868813,0.0452902410858053,0
0.6409259259259259,0.0227815413933712,93.7376237578961,3.466698287456053,0.0331509561046518,87.03703703703704,197.40740740740745,0.5951571714211867,3.17592862391569,1.0913879188820632,0.0992043042669965,0
0.6591269841269841,0.0376712517025581,91.3401107737568,5.441241249202225,0.0215716742976477,19.01709401709403,90.5982905982906,0.4134279930182346,2.182062975179204,0.97636693299801,0.0573374651545802,0
0.665873015873016,0.043306724780185,90.50103222946927,6.073087583262907,0.0345401207730943,-350.64102564102564,-225.4273504273504,0.6679836343718654,4.437930454954837,1.035890012886501,0.0699896847009606,0
0.6589285714285714,0.046931628891137,91.5239276734692,6.56872795077244,0.0392156600888131,61.50793650793649,209.12698412698413,0.6599774584888795,4.53858331270882,1.02362754491448,0.1245272016692154,0
0.6781746031746031,0.0368043522243712,88.72587369787779,4.6686750507987735,0.0382890243113617,186.32478632478632,217.948717948718,0.6333351225694663,2.8910067243044293,1.1567543466096055,0.1401420704449471,0
0.7179487179487178,0.0299694246021995,83.71431421546474,3.4272186908137923,0.0302595085895707,85.68376068376067,207.6923076923077,0.6043037789195543,3.1602765132435504,1.0442262590843363,0.1193773584560507,0
0.6290740740740742,0.0173580861562229,95.45017047047595,2.606870221203625,0.0290293441515561,45.74074074074073,234.62962962962968,1.1086061726641083,5.873423600666452,1.2176927653811558,0.9565682581537552,0
0.6322222222222221,0.0169056933941143,94.97105120901772,2.533703236666776,0.0231216779872336,45.0,234.44444444444449,1.0732634738319209,5.66929040159568,1.2206189706532056,0.8945534414365817,0
0.6235185185185185,0.0135653678309721,96.2736120258745,2.0926082313911145,0.0220479275922049,47.5925925925926,235.5555555555556,1.0738820615616098,5.693414795198772,1.2364818408740823,0.6235650100202248,0
0.6168518518518519,0.0240555484275643,97.41725983597335,3.82701687447082,0.0455347416640601,53.51851851851852,236.85185185185185,0.987951863410385,5.371075192243181,1.255208024627512,0.442573462224023,0
0.6032986111111112,0.0134377691618176,99.50259185813108,2.216478802633419,0.0217188355795157,46.52777777777777,236.8055555555556,0.9154079441314044,4.812250641885726,1.212581225552122,0.6994869047786254,0
0.5795138888888889,0.0978396811225409,108.1650958940363,27.811108519847416,0.0954278862884507,41.66666666666666,233.33333333333337,0.9734882149706514,5.052868861801347,1.458681516000535,0.653797773437404,0
0.6253703703703704,0.0304436784620229,96.17097377379442,4.684662514198437,0.0442144345858856,51.66666666666666,237.962962962963,0.926169902473676,4.9843411163837255,1.2856759154420578,0.7219843951637919,0
0.6595238095238096,0.0326435624096489,91.1998973887116,4.554433294960481,0.0208440143559952,47.22222222222222,233.9285714285715,0.8759997828285756,4.6917906066566175,0.9766821286051156,0.5853991714485273,0
0.6696428571428571,0.0352376707038633,89.84110674776635,4.586998639972542,0.0428811604568632,53.96825396825396,239.88095238095235,1.0150169913244422,5.410473605563276,1.3365999460574187,0.4543506656538444,0
0.7192307692307692,0.1870906786940603,86.75575895178312,12.980720322048883,0.2827642705789566,47.64957264957264,237.82051282051285,1.0846184304759765,5.70295366840925,1.253683283598441,0.9668122236308688,0
0.6976495726495726,0.0202619993010764,86.07641638601096,2.527210873528305,0.0343311308175229,49.35897435897435,236.32478632478632,1.0517557866962417,5.634231787155209,1.1541673986340228,0.974310247699806,0
0.6795634920634922,0.0176185560491986,88.35066541712561,2.2645817224834763,0.0244963512603657,47.81746031746031,239.6825396825396,1.1356814374492916,5.919124459949067,1.3278216784574994,1.0003145053716445,0
0.7652777777777776,0.065963693405817,78.92812778211517,6.119034058792554,0.0664875540026966,48.14814814814815,297.9166666666667,0.7481168236707534,2.9962182151888808,0.794818569924886,0.660278011013212,0
0.7851851851851851,0.0546257060737923,76.7922010349746,5.43159593325566,0.0442308630713432,48.14814814814815,299.537037037037,0.7867219058360623,3.131572354405377,0.8378869060150457,0.7540980322961257,0
0.7641203703703702,0.0409892201610392,78.74513954484301,4.177314042239735,0.0448059790382461,50.0,300.9259259259259,0.786001934312849,3.1339558464776567,0.9074922232297143,0.7147881261022828,0
0.7548611111111111,0.0438344276491105,79.75305069441369,4.629429118235396,0.0403147688026846,49.76851851851851,285.8796296296296,0.866180237494422,4.681794675155342,2.194271963730903,0.7183228566477058,0
0.7578703703703705,0.0438301490026125,79.42839137236906,4.494469481155097,0.0421853241218819,48.379629629629626,300.69444444444446,0.8043750453597082,3.190454294190592,0.8749942598858623,0.6544695286384079,0
0.7181623931623933,0.0583243316682512,84.08568827242051,6.648017360088281,0.0312731395811047,48.07692307692308,299.1452991452992,0.7680853683270585,3.0624938175457106,0.872688496410321,0.3946074711071652,0
0.7367521367521369,0.0397516304705092,81.67893929585179,4.460104822825501,0.0350172649950938,51.70940170940172,297.4358974358974,0.7944912230284005,3.230535429019563,0.8741112184033906,0.5591049847350429,0
0.7132478632478633,0.0386616352421083,84.37166552027387,4.607010492405338,0.0308800113808375,49.358974358974365,305.982905982906,0.7494505590696511,2.924245465108505,0.8172570244617181,0.656675938103529,0
0.7074786324786324,0.0377643360856673,85.04426079690823,4.424581442335499,0.0358788829074029,54.48717948717949,296.36752136752136,0.7203533029719106,2.9816082392024046,0.8468830638361408,0.63528255097619,0
0.6581349206349205,0.0711649124174634,92.09125673509796,8.60075756056553,0.0427564049171991,50.46296296296296,1573.8425925925924,0.7208102824467368,0.5694262965221486,0.81606842829755,0.5542417313368089,0
0.7188034188034188,0.0580953003257209,83.99714785477877,6.52001318244445,0.0407696656579384,50.21367521367522,301.9230769230769,0.7363398096738536,2.926291611701986,0.8109969339899277,0.661235860284465,0
0.7537037037037037,0.0277159806427699,79.71179357443354,2.8543237578745244,0.0271649572906266,50.69444444444445,300.6944444444444,0.750250612982207,3.00355666706338,0.8403355850683643,0.6643969668649004,0
0.8118686868686869,0.018954539398783,73.9441767407593,1.7391520421466435,0.0244223384892591,61.36363636363637,260.3535353535354,1.6013368606772354,8.046573275205754,1.841178967683684,1.4520298114029069,0
0.7937499999999998,0.0745539289578038,76.26522713953506,7.20329381239495,0.0399125728062407,62.49999999999999,261.8055555555556,1.59075449396391,7.981560464670665,1.9535065390911384,1.467262758279916,0
0.8444444444444446,0.0323291503420771,71.15715687659156,2.7329055162884885,0.031143336484831,59.595959595959606,261.61616161616166,1.5342264175717026,7.595171915915807,1.618567263957066,1.438916173806537,0
0.8156565656565656,0.0557354754180816,73.91569670655117,5.206513294744826,0.0239114880185081,60.1010101010101,261.11111111111114,1.5191315466513375,7.563695418882213,1.6419839246800303,1.3847618636690024,0
0.7881944444444445,0.0360777089107237,76.28810692779997,3.602109296056446,0.0268010084069123,60.18518518518519,258.56481481481484,1.616480602732538,8.138076943609915,1.977650815710968,1.3738778535248943,0
0.7539351851851851,0.0432337759082721,79.83963427161294,4.4904988660318095,0.0301511344577763,57.17592592592592,254.62962962962968,1.538894339845273,7.802157689710943,1.691819578174158,1.3652436390056082,0
0.7228632478632478,0.0354417557548979,83.2026500110964,4.072658482578936,0.0219895223834035,58.97435897435899,252.35042735042737,1.5056966286295932,7.784738779762581,1.6391410305565408,1.4090511337086498,0
0.6938034188034188,0.047680703486714,86.8723143593896,5.723408937603847,0.0231990181784584,58.119658119658126,245.94017094017096,1.527566662566992,8.566958353104104,2.060919242019174,1.270578482755824,0
0.7606481481481481,0.0714419507849666,79.54913003988015,7.134906137927418,0.0395949610779066,59.49074074074073,253.00925925925927,1.4128031395503209,7.300757503655835,1.6181453150136291,1.2076362969971564,0
0.8027777777777778,0.0424588002587966,74.95389332956853,4.039372532292999,0.0296064724321649,61.11111111111111,258.8383838383839,1.5372908033989223,7.772394358818178,1.638087278408054,1.398549325119122,0
0.8238425925925924,0.0419965082404427,73.01483105295692,3.641118544777752,0.0384353057392903,-729.7979797979798,-561.3636363636365,1.4939479444731132,6.435040803142737,1.7082087151631828,0.9149548957677456,0
0.8616666666666667,0.0185009175614963,69.66444083826286,1.4882260164360577,0.0213365159663016,60.833333333333336,262.50000000000006,1.5442705756090311,7.6560915472522835,1.6966680213351006,1.2762388497573518,0
0.8313131313131312,0.0266195635416251,72.24786054334838,2.277445175252669,0.0403112887414927,95.70707070707071,272.22222222222223,0.6461624125421701,3.683667586673289,0.6941929483114317,0.5898968462370999,0
0.8315656565656565,0.0298535691032962,72.2451534266051,2.567955772669707,0.0394894109888576,102.7777777777778,274.7474747474748,0.6582207383743689,3.865908543443112,0.7057456585608752,0.6291880249887112,0
0.8444444444444443,0.0248451997499976,71.11467217418273,2.109218447584192,0.0383997010019223,99.74747474747474,273.73737373737373,0.6681240956252876,3.8563348578718935,0.7010852863030221,0.6319616356467815,0
0.8608333333333332,0.0316337548268371,69.7930848208143,2.536972830924608,0.046045617626505,110.83333333333331,275.0,0.6905571715259907,4.233013323202343,0.7179393865134551,0.6525264974922996,0
0.95,0.2542235819699455,65.95505169326304,10.508920355579283,0.39145537598232,103.05555555555554,275.55555555555554,0.6920422985341708,4.037091638471301,0.7605753887613126,0.631734737882991,0
0.8516666666666666,0.0239340658094866,70.50609267508544,1.9934178505386024,0.0283278861866265,105.83333333333331,278.61111111111114,0.6701414735011245,3.890180369876611,0.7404623816227383,0.5857488841706256,0
0.7749999999999999,0.0470175302216965,77.71059034481516,4.808338678557092,0.0390239357898999,102.3148148148148,277.0833333333333,0.6937100541936493,4.010676321790339,0.7653351876068185,0.632421118262041,0
0.8250000000000001,0.0328243975944887,72.84514973836491,2.9654531326503046,0.0287335567577461,101.010101010101,277.52525252525254,0.6627527152159162,3.763061362220696,0.6912737009874117,0.6303371020781199,0
0.8436868686868686,0.0314958824801391,71.21560720487774,2.659003521877076,0.0368513865595044,102.52525252525253,277.5252525252526,0.6914805332151701,3.97019464532308,0.752245672917714,0.6647273697223777,0
0.8616161616161616,0.0164897249669843,69.66221874982973,1.3401118401177412,0.0230572288549412,104.04040404040404,279.54545454545456,0.6900634922583516,3.959369741332985,0.7262943807561522,0.6359138877400089,0
0.8497474747474747,0.0304164543937647,70.70380173565053,2.6464785944221627,0.0380768391415614,106.06060606060603,281.06060606060606,0.697412616428575,4.051852155195205,0.7518464012758584,0.578940024900167,0
0.8238425925925926,0.0309207622102899,72.93112152006495,2.711807209241905,0.0472890198980489,-728.7878787878789,-547.9797979797979,0.6789261327541932,3.786612542861832,0.7625450856029733,0.5660003896365335,0
0.9294444444444444,0.0501417743090947,64.74703361361058,3.570641478258424,0.0559706713322496,112.7777777777778,312.2222222222223,1.4313995456393578,5.234271735434895,1.7553774866811525,0.576912103495825,0
0.9019444444444444,0.0603877644789524,66.85302356834278,4.9432691357886975,0.0515367409262064,66.66666666666666,294.16666666666663,1.424330676410891,6.125216012486897,1.7655081854491756,0.5636082281376473,0
0.96,0.1107508046956803,63.34160730714141,7.3256760717409986,0.1288302069478359,367.5925925925926,314.5061728395062,1.1874214528952998,3.091782132310457,1.841022595867939,0.5222725719616825,0
0.9598765432098766,0.0457769220956958,62.64759817179371,2.9291205696578304,0.0647138764290096,115.74074074074076,315.7407407407407,1.5258825012163824,5.515372645906389,1.745706755310595,0.5850239965661048,0
0.9272222222222222,0.0585683098064153,64.9719194910479,4.160155297970823,0.0648346530486563,1489.2361111111109,320.4861111111111,1.7398039930033635,-0.2223445303613235,2.8301392772886587,0.2576287035664276,0
0.9230555555555556,0.052485300705278,65.21746286869279,3.8028580689811418,0.0574969433194815,712.962962962963,324.69135802469134,1.3040164292607253,2.387086802906337,1.7368078180699884,0.540266888869861,0
0.9011111111111112,0.0513731207039653,66.7986154162063,3.766450920972013,0.0724651659374931,295.0617283950617,326.2345679012345,1.4544970859922537,4.1990163529482665,1.6535679964607268,0.4895370292843481,0
0.9038888888888889,0.0424227693346944,66.527892155885,3.157354114757,0.0567767026546514,144.72222222222223,324.16666666666663,1.2975822710180198,5.331073264664594,1.62658719105358,0.1707902159976151,0
0.8002314814814815,0.0467220011077987,75.22267986094117,4.192756190134644,0.0376703016630469,83.56481481481482,313.65740740740733,1.3385131819175096,5.771732688742001,1.5368317977162138,0.5136378573567013,0
0.7763888888888889,0.0448548757276531,77.53851839437253,4.462460925008361,0.026827168499433,813.1313131313132,301.76767676767673,1.242437139165988,-1.4108701736755922,1.7059918875856752,0.4580558664336156,0
0.9097222222222224,0.0925817123237096,66.66998544789998,7.074658793632451,0.0673702583836342,177.22222222222223,323.88888888888886,1.197010380751998,3.963867336666638,1.6994148136623568,0.5383774217015583,0
0.9130555555555556,0.0788913340779111,66.2054851854489,5.709810527383201,0.0937611447422357,138.05555555555554,296.94444444444446,1.2439873962397578,5.26956779995519,1.693999616422537,0.4027027254281385,0
0.8911111111111112,0.0250862708997236,67.38652115279213,1.9503386992708736,0.0428234484438784,100.55555555555556,200.0,0.3551607843409959,4.480670717319908,0.4065366468287978,0.2603051397378503,0
0.9105555555555556,0.0541460074562916,66.12297170738728,3.8585417997844833,0.0443575539518647,125.55555555555554,209.72222222222223,0.4058878990951024,5.384644809404103,0.4286928711436273,0.3776301004863434,0
0.8436868686868688,0.0217142351784905,71.16363495865642,1.8348820819882352,0.0342242062916921,119.19191919191918,218.1818181818182,0.4201087423223211,4.444769527013895,0.4681119643981342,0.3638325605435427,0
0.853030303030303,0.024171297172036,70.39329446994026,1.9708403900944091,0.0294889600602004,126.51515151515152,226.01010101010104,0.4319060998640982,4.615065683821441,0.4828802234404711,0.3666561354583936,0
0.8361111111111111,0.0339174411926885,71.87890193904738,2.912911672209374,0.039791121287711,104.7979797979798,187.12121212121207,0.3719496206051874,5.051977958322432,0.439044925015138,0.3056876846798338,0
0.8232323232323232,0.0571644889602087,73.23297777045546,5.039235465867854,0.0529529257518318,120.2020202020202,200.2525252525253,0.3537391784695085,4.635501826919441,0.4624186335780956,0.0384040669272502,0
0.7736111111111111,0.0301637335727072,77.6760670680686,3.020998300046541,0.0295875121532865,109.95370370370372,206.71296296296293,0.4422267563194523,4.629985617713202,0.5409078165329911,0.2800220935558982,0
0.7817129629629629,0.0346658492998766,76.9039720578243,3.374734010724901,0.0375677465121644,112.5,201.3888888888889,0.400672249361087,5.927073792142419,0.4997525819031486,0.3445073867030382,0
0.8262626262626263,0.0224846760500525,72.66973795840391,1.9702822067568628,0.0362922805790657,106.31313131313132,195.7070707070707,0.3949746588794413,5.961662051826437,0.4688499405474597,0.3220786419438936,0
0.786111111111111,0.0346573468003942,76.47623639893378,3.430412366116893,0.0379763054487019,92.3611111111111,185.1851851851852,0.4864828175046256,5.219748194972511,0.8214494541646347,0.033082197456223,0
0.7738425925925926,0.0380609338814573,77.7296155785,3.957634708028148,0.0298001197656509,86.1111111111111,158.33333333333334,0.4254977243906341,7.51891543665856,0.5932497852127812,0.0291284560818136,0
0.7456018518518519,0.0301628453460378,80.59849086198182,3.133310974116468,0.0309433608790574,89.81481481481482,185.87962962962965,0.5180813742200733,6.152001515023605,0.9785107193934456,0.0230643300130855,0
0.7459401709401708,0.1498519979906012,83.88244001322444,17.262519071496193,0.2248899479370467,-1062.8787878787878,-551.7676767676768,1.0819858678152672,5.990095725535405,1.7668672212866,0.5423777490161882,1
0.6390873015873015,0.1838300878441149,101.14927806078244,25.894263876313826,0.2282502396271218,96.875,2051.736111111112,1.1312401288812175,0.8706031891057324,1.5541201023423328,0.2884031459966387,1
0.5600694444444445,0.1869071775426917,118.5173790851182,35.384558126944896,0.1314097352501652,-108.53174603174602,1347.0238095238096,1.0846368942137017,2.155583374861941,1.5784819050511507,0.0867921282700251,1
0.6537037037037037,0.2685249041386314,107.07531264548874,39.52168231932374,0.3541584966377917,122.83950617283952,2318.20987654321,1.0363021848757397,1.7015899392305809,1.5883702876985455,0.319394306770517,1
0.7898148148148149,0.1373963008389416,78.7786698050077,16.298131271214007,0.2106703932458187,-244.16666666666669,758.0555555555555,1.1267887003782369,4.673480838371602,1.656849195157725,0.6335512281821505,1
0.6005555555555555,0.1705721429984339,106.365194050691,23.402685546613924,0.2376849971039916,99.07407407407408,1990.7407407407409,0.7900780665670102,1.9460825815505205,1.6079246867905026,-0.0435939854482546,1
0.6662698412698413,0.1712751003208636,95.93375524312872,23.39094643322392,0.252386519777943,100.92592592592592,1236.7283950617284,0.9258601994082728,3.5295372867291688,1.8394601690544008,0.2188499220485615,1
0.634126984126984,0.1868689515116212,101.59879422509496,24.430812761277465,0.2504317259907699,141.41414141414143,1612.8787878787878,0.8969313243879306,2.320509183527447,1.6676364156185133,-0.0225735286746393,1
0.5684027777777778,0.1818035793755597,115.47469910274992,32.192025547433566,0.1235387844999301,-291.45299145299145,160.25641025641022,0.9735422048991652,5.977670586786909,1.4565825496964018,-0.0912600243901419,1
0.6922619047619047,0.2505223347812282,98.47094044515757,35.205585964725955,0.4084350707609966,130.05050505050505,1607.828282828283,1.0520462205208383,9.114912420590464,1.5721270834294054,0.2419014189681343,1
0.744675925925926,0.1690320510329506,84.88367559678879,19.06735873051932,0.2707093085615326,170.7070707070707,962.878787878788,1.0063332537893126,1.1974432595207989,2.0640635339555384,0.1898321048714753,1
0.7003968253968255,0.1670592504080165,90.29658933874248,19.544825990183032,0.2753494283493388,-154.04040404040404,1379.040404040404,1.1857019317563768,3.0924338735897483,1.6246402593569975,0.2697607013172359,1
0.7520833333333333,0.2174845821364774,86.22406732480515,22.66662471753325,0.2950441767222883,101.62037037037037,248.37962962962965,0.954328596135752,8.232746315865237,1.655486317259658,0.0626912985354886,1
0.6407407407407408,0.2377333522592192,105.5113278755718,34.32022676990183,0.3450335783572427,-637.6262626262625,890.6565656565657,1.1384200059215828,2.150695280414607,1.9089290764751496,-0.0237535868588129,1
0.6083333333333333,0.2214221709264403,109.92859083305493,33.056207655391766,0.2588197332526785,141.4351851851852,1465.2777777777776,0.9148394848002698,1.517945789766517,2.7587655909927964,-0.2449278698678723,1
0.775,0.2589151155051343,85.9330100149516,25.765356636276007,0.3731373493520603,146.46464646464645,1015.4040404040404,0.9265276243855972,1.0463916170800127,2.62190582673345,-0.307105240797378,1
0.5562091503267974,0.1457692184357157,114.4230585908219,26.223250039588653,0.1503307823960298,73.85620915032679,611.6013071895425,1.0162691704811269,2.819482414234173,1.6104755420042984,-0.1365432253132073,1
0.4493686868686868,0.0650041644730309,136.84759103986508,23.458285376297912,0.0825870463414087,-343.38624338624334,-292.85714285714283,0.6108925294006208,9.082713112599867,1.5964790694896482,-0.7119634233004157,1
0.5905555555555556,0.239765403175001,119.73099512979888,45.74777275523464,0.1430757806630656,94.44444444444444,801.7857142857143,0.872893846623714,4.263956754867532,2.0860769059691617,-0.2188638747133123,1
0.7068376068376069,0.1499034802816151,88.94515692338807,19.279164548065303,0.234302715190582,104.7008547008547,504.0598290598291,0.8766752032902982,5.468239731392042,1.5036626684953214,0.0874373238101511,1
0.4223484848484849,0.054119555222902,144.5209686122877,19.39272734724383,0.0788638271541022,-304.5321637426901,-231.43274853801168,1.228198259935461,15.772419849815757,1.7537578830355138,0.0495830474788528,1
0.7113247863247865,0.2192332683418311,91.82432498356587,24.516513819461977,0.351878044834022,138.88888888888889,1476.2626262626263,0.9923943232831468,1.9139140517963755,2.2301456982861283,-0.0214430848601822,1
0.525,0.2380552409604315,127.42528109149144,31.458159321080167,0.2729113655125523,-209.54861111111111,-197.22222222222223,0.8039517620786125,7.504669079605231,1.858552418927176,0.06349570075315,1
0.7104700854700854,0.1751107160493079,89.50028466322209,20.692073156909004,0.2843957025657387,88.6574074074074,1473.148148148148,1.022292942023488,0.8523181223037746,1.8228244987797264,-0.5532044208912207,1
0.6722222222222223,0.1543247794948613,93.83258287916884,20.09417665546885,0.2979372739072536,101.28205128205128,428.4188034188034,0.9638726498008194,12.360479667210846,1.6734594776308391,-0.475462006211657,1
0.6399305555555556,0.1576430952693809,99.28720892911105,23.072096935551563,0.2276422360949764,132.93650793650795,525.3968253968254,0.8245981055467679,4.531318935792285,1.6576351621908452,-0.6623149137506805,1
0.6085069444444444,0.4624452219291577,134.06209686449782,59.14999183766173,0.4104756099178714,47.74305555555556,109.02777777777776,0.030611392736021,0.5909992225851198,0.1683373820933436,-0.1002303245882617,1
0.5064327485380117,0.204000862841175,138.09872198750338,53.02857387016459,0.3033513369142812,38.01169590643275,108.47953216374268,0.0207533256360431,0.2597112935731807,0.0599621538830422,-0.0995790375225728,1
0.6325925925925926,0.2749550405946807,113.82768193166592,49.354079540369646,0.4112518527857997,41.2962962962963,119.44444444444444,0.0071069907550477,0.1595990787751237,0.072965959795211,-0.058870328558387,1
0.5707407407407408,0.306870682718647,123.20002686765612,39.623297520690045,0.460503520142346,47.22222222222222,128.14814814814815,0.0286113918476311,0.4749424516816315,0.1276698029973467,-0.0178834744730288,1
0.5628472222222222,0.0244908610758088,106.81352668252516,4.899748614781878,0.0395772412465972,-32.07070707070707,1490.909090909091,-0.2159025854317168,0.4313630789028013,2.4133154214039,-2.683555483276536,1
0.6563492063492065,0.2976732754829695,99.6502106356721,18.275472374776,0.4602917238394992,170.2380952380952,734.9206349206348,0.1466755503254917,0.4172451295354336,0.8258230239895894,-0.4540717581764284,1
0.7087962962962963,0.2160985944834507,100.1548917855989,52.57446043410553,0.1740272789741898,84.95370370370371,257.63888888888886,0.5916212167132063,3.374406019320108,0.9313374997772166,0.0578475330826787,1
0.748611111111111,0.1665296504698088,89.68190367972453,44.18646789742128,0.2048650701552047,80.0925925925926,232.4074074074074,0.7522563044361346,5.37177650179487,0.8841178437213215,0.5911741860143935,1
0.6982905982905983,0.2025201456146869,98.86744445953022,46.060591622768925,0.2641567840967975,79.7008547008547,212.6068376068376,0.6760558711336437,6.317593622524488,0.9603889576557286,0.127470841588394,1
0.6918650793650795,0.1833858278792802,95.8139273459532,34.43607801053598,0.2299200901688408,86.9047619047619,227.57936507936503,0.5511550322320229,4.119701720728927,0.7381456267765725,0.240400017809912,1
0.7111111111111111,0.2182334322672955,100.98066798993194,56.07612854546452,0.1435020898601783,90.3846153846154,254.9145299145299,0.620614970729991,4.013802755507227,0.9044430449348584,0.1335185915929846,1
0.7363425925925925,0.1595287005302398,88.86714348299297,34.74348498983035,0.1247753312045959,84.49074074074073,240.2777777777778,0.6314057054362927,4.201189823919706,0.810846036635258,0.3242743974585363,1
0.7497685185185184,0.1591372473511874,86.79020477168483,32.4342285688666,0.1959465787616488,83.33333333333333,262.5,0.6747515186814419,3.985249265320802,0.9650923362192154,0.4782040901494904,1
0.7190170940170941,0.1564035424274749,92.74959105274752,44.15764691250098,0.1971961380768598,-620.8333333333334,-512.2685185185186,0.6536490587116881,6.482402054176695,0.9737775005528658,0.0703817341755706,1
0.6050347222222222,0.1954394649054162,114.40054172997876,48.72033791954735,0.2393965321145595,64.8148148148148,90.55555555555556,0.7946584337475947,6.231389282508426,1.4869867150821603,0.1340650434971716,1
0.6644841269841271,0.1794845481116242,99.43803103038891,34.58969326995739,0.2128485075810662,83.13492063492063,200.7936507936508,0.8081656593939411,7.855186321169709,1.2979819755887256,0.0580850658573321,1
0.4445767195767196,0.2608203325620435,159.17600943056487,49.17545891570644,0.3577999906838083,-223.4567901234568,430.55555555555554,0.5508127997599158,1.3480246827877451,1.2992321750574105,-0.3546787342286865,1
0.3962962962962963,0.1282265335090503,162.5313873864893,37.21899483634697,0.163652289709003,-119.17989417989418,913.756613756614,0.5496598841644217,1.260075037017106,1.5117868718859315,-0.3945210482151647,1
0.3625514403292181,0.0807358220354837,172.9688316846285,34.01335190289689,0.0994151343904384,-100.46296296296298,474.0740740740741,0.717668545831151,1.6158997693162829,1.2118720335714248,-0.0661618995406372,1
0.3450396825396825,0.0680873635695594,179.76230389821555,30.41401598934893,0.0820076306574818,222.22222222222223,1506.4327485380118,0.5363634797330787,1.5372408983112804,1.7913433259315048,-0.0982131157994199,1
0.3918981481481481,0.0800105954703322,159.77520494640632,33.43966626603064,0.0947866066760118,-310.5820105820106,86.64021164021165,0.5473002488182288,0.426786121456925,1.1175941556458615,-0.0887261080708688,1
0.3513888888888888,0.1029933924525689,180.6861457522936,36.07453574433592,0.1099125166524378,229.3650793650793,-41.79894179894181,0.8836517394533028,2.98932313910825,1.2402851233711842,0.1659235322558961,1
0.3438492063492063,0.077622993456364,182.3141458166652,35.42916120169,0.1042533932520782,-77.00617283950618,1925.9259259259256,0.6526714548888348,1.7955391773418994,1.7433799577871536,-0.3995702839634031,1
0.3568930041152263,0.0840958610019556,176.78490458110238,37.69466404848225,0.1122907466173346,-277.2486772486772,464.4179894179895,0.7709824080396663,2.073540779041161,1.5091834440500975,0.0578602074673511,1
0.3828888888888889,0.0740815366611281,162.672518565809,31.38220350119566,0.091549096882043,490.4320987654321,898.1481481481483,0.5872430840957399,0.6400201971139183,1.229183423515143,-0.0337794313055519,1
0.3846666666666667,0.086481711475624,163.79759322248103,35.61277220539483,0.0862305026569912,1428.3333333333337,733.0555555555555,0.5371866894989246,0.3270820979944384,1.2285501467411877,-0.1003811527283793,1
0.4024305555555555,0.0677255438715369,153.88292624444384,28.83771185633664,0.0849184983896916,394.94949494949503,157.32323232323236,0.5459069697415282,1.548954634798209,1.100882200646777,-0.0433684183954881,1
0.3737777777777777,0.0759917149480174,167.30030835905438,33.81390101368986,0.0918908593993562,1199.2690058479534,1066.0818713450294,0.5677703999437924,0.7114218326228011,1.1241450710925205,-0.0396695677329359,1
0.3761752136752137,0.070555947055088,164.96614816318197,29.758091067913504,0.0890848534326184,-377.9040404040404,42.04545454545455,0.5982026800832484,3.418659791896184,1.0700833209778868,-0.0547376085573158,1
0.372008547008547,0.0974476113816325,169.90297978964094,34.60446964915291,0.1329160135825125,140.47619047619048,-17.460317460317487,0.7175567940718671,3.140660114600956,1.2829073510129403,-0.1354248383792554,1
0.3632478632478632,0.0758393508003085,171.59412882218496,31.42495642850647,0.1082221651836491,419.8611111111112,1279.4444444444446,0.6641475884688185,2.4645253970909686,1.222610877243573,-0.1073922447517331,1
0.4119212962962962,0.07813854477921,150.74269009894937,27.56493225474976,0.0990900629715722,126.57004830917876,520.7729468599034,0.5056485534589507,1.1255467027032762,1.1489584107483424,-0.0856966873564232,1
0.3685897435897436,0.0647781352648121,168.19000803203835,31.350045165715155,0.1080409158891798,-329.4117647058824,1070.424836601307,0.6426351048795952,1.9098124473934808,1.0790862868381723,-0.2792364152952388,1
0.3797777777777778,0.0816175967470583,164.68952072673946,32.042291719464764,0.1249099469856867,-103.26797385620915,1427.450980392157,0.6305659316931002,1.1503096943949185,0.9770794479051144,-0.1509632868596103,1
0.363477366255144,0.076804253085436,172.13175391560932,34.29748406007964,0.0834952131399396,379.2824074074074,382.9861111111111,0.6663016166112133,1.335582949900954,1.4397649148336076,0.0206904096206745,1
0.3604938271604939,0.0816438244325769,174.09938344477033,34.6123415829118,0.1343477702153011,47.91666666666666,1711.111111111111,0.5512386393060691,0.6817532420689338,1.4152058341187748,-0.7624926721533836,1
0.3449404761904762,0.0641001234163824,179.85498494565795,32.38089708115371,0.0979324440780954,-926.8115942028984,21.618357487922697,0.4899311874545401,0.5198943700196564,1.280385328290342,-0.0440320830088648,1
0.4210858585858586,0.0695890367977934,146.56653372317243,25.03828814701153,0.1079562015180606,65.55555555555554,1091.25,0.692976206491099,0.7655950437788855,1.2067217373293642,-0.2851985209884721,1
0.3948888888888889,0.086219215296938,158.33087825652223,30.264032498231824,0.1293320824522683,141.66666666666669,929.4973544973544,0.5340771189611205,0.7747935387044872,1.0740254103594136,-0.1112027887838908,1
0.3454732510288065,0.0574529297216504,178.3394086474614,28.372937824367565,0.0773454099520183,-349.074074074074,905.8201058201058,0.6553180925849635,0.7389097217366261,1.2060753929762504,0.0515253094193118,1
0.3887777777777777,0.0788633761562706,160.7623546269271,32.29106085138044,0.0929898883834354,113.01169590643276,1267.251461988304,0.6484427121495934,3.162865175496667,1.1289667037874918,0.1715540978958249,1
0.3826666666666666,0.0698511645227564,162.00292614772707,28.94494994181364,0.088742283615166,-232.8947368421053,1819.8830409356724,0.6961598573088322,0.947660594147676,1.1643090406465917,-0.1013524321990321,1
0.4056712962962963,0.1127154976690451,156.7330509091455,33.56719116337193,0.1778221185645315,-294.59064327485385,614.0350877192983,0.5294194967883413,0.9635588026197048,1.205637503576499,-0.0416513684720973,1
0.3831111111111111,0.0712668433632566,162.00373829397842,29.3234445516679,0.111975802059702,-360.0308641975309,1247.222222222222,0.6119440373240781,0.5901163863892406,1.1691985247819712,0.0868307832097664,1
0.3585390946502058,0.0719165974275366,173.38066362621714,31.033822865049263,0.0916553347048989,-2.5000000000000058,1130.1388888888891,0.6977852987890922,0.6218314474807066,1.087830801592698,-0.0312520998494105,1
0.4084541062801932,0.1058807546543083,156.44271983344538,37.976631409692914,0.1566620548787509,84.72222222222223,1927.7777777777776,0.973926994940532,0.4469992358976764,2.3404744378512325,-0.1726255286287579,1
0.4072916666666666,0.0990204483418188,155.21792474363477,33.84815423077449,0.1320642095656572,-501.4550264550264,-212.3015873015873,0.6141119221207739,6.185260584393567,1.128836767526649,0.0591910954955897,1
0.5549019607843138,0.2908485716363071,139.89740511454943,63.62474701963305,0.2565951078698034,63.0718954248366,141.33986928104574,0.260457440156209,3.4974022458601306,0.5976762386830665,0.0042598345957262,1
0.7929292929292928,0.169191165383516,81.57908075151452,27.99132766666457,0.1433774695181641,69.19191919191918,280.3030303030304,0.3387366806208648,1.6217507744771524,0.4678131306619845,0.1056229145760914,1
0.6934523809523808,0.2685523752341247,112.23824520169308,67.31024405919693,0.1333466873654498,69.04761904761905,257.3412698412698,0.3074094136661422,1.7347735458630895,0.5127317624612668,0.0302994378272959,1
0.8092592592592592,0.1618848491662353,79.04116336304762,24.516058935769973,0.1370560888567334,84.72222222222223,269.212962962963,0.3240079688453797,1.5301427385255522,0.4503738455580526,0.1498988894093526,1
0.8217592592592592,0.0549367543832665,73.33068372814064,4.741089190333897,0.0379670688425946,62.96296296296296,234.95370370370367,0.3014541241931375,2.6972473144520994,0.4346836141472037,0.1462000857988341,1
0.758760683760684,0.1566879045200818,87.22317253957968,40.58379810541291,0.2002056555813271,70.72649572649573,256.4102564102564,0.3379358014864581,2.1625644354884623,0.5610676291279039,-0.0403723228677308,1
0.5888888888888889,0.2497239988813328,123.24789893673696,52.318440111870125,0.203527280504273,52.08333333333333,150.86805555555554,0.291439457186053,3.177744587299233,0.604882788362646,0.0279835915310793,1
0.7280092592592592,0.2220151185780578,93.5515818321431,36.66242121665982,0.2357692117561604,84.02777777777779,268.28703703703707,0.3238622460496258,2.112313518905242,0.5428490504859032,0.1263866725101845,1
0.8507575757575758,0.1311109554714178,72.94769813191796,16.180746940443257,0.222595173153218,61.86868686868688,266.4141414141414,0.3461554884619452,1.890680490583378,0.4797625719573621,0.1925332865776142,1
0.8797222222222221,0.1577917149556401,70.8498328933113,15.638550259772844,0.2767202090091616,2513.1944444444443,277.7777777777778,0.2118681671943333,-0.3882012184083425,0.3023615977374841,0.100847765745911,1
0.7017857142857142,0.0428741331695059,85.87448530137372,6.212501560761551,0.0493066841089092,54.76190476190475,216.2698412698413,0.1229370774903212,0.7581144715767041,0.1719012282357638,0.0156876525424604,2
0.7023504273504274,0.0211225271047134,85.50492942578565,2.5776456453316885,0.0380869700022279,48.50427350427351,225.4273504273505,0.1624988225316397,0.9435758478140646,0.181969624550493,0.1312142239242794,2
0.6991452991452991,0.0286276944593467,85.9636958491666,3.535036146029838,0.0546982462986533,48.07692307692308,216.66666666666669,0.1006464911375038,0.7451268571000705,0.156125548232043,-0.0037434739704078,2
0.6956349206349205,0.0249716392421464,86.36328246609378,3.097917723806851,0.0470900614157653,44.24603174603174,216.07142857142853,0.1381303173767808,0.8854963328401334,0.1766650159069495,0.0131451832911208,2
0.7038461538461538,0.0177877396480918,85.30047677199883,2.1604334035917354,0.0277430338269974,52.35042735042735,230.76923076923077,0.1519053794464901,0.8532816925113139,0.1728652621759699,0.1348985249861073,2
0.7059829059829059,0.0200262812202734,85.05626857946484,2.410905211336703,0.0350539707336776,50.42735042735042,213.67521367521368,0.1389044419295058,0.8800830893132585,0.1808899216934514,0.075609227532765,2
0.7192307692307692,0.0185368635848686,83.47881643392044,2.18718130684203,0.0282710826680963,46.15384615384615,216.66666666666663,0.0866915154733447,0.4303828467335688,0.1337240193534098,-0.0629255813763276,2
0.7205128205128204,0.018888212077444,83.33059161932448,2.158647104991933,0.0306081197704918,56.83760683760683,240.17094017094016,0.1572964946937918,0.8559932108144264,0.1940819186053513,0.1107477023305883,2
0.7123931623931624,0.0198407532571053,84.28778894066635,2.3226906821321918,0.0257600513763769,51.06837606837607,227.5641025641025,0.153939970548902,0.8934402411934901,0.2095928964492599,0.109827155750618,2
0.7100427350427351,0.0145988810705459,84.53777180977725,1.742354352430434,0.0245195605127136,60.47008547008548,240.59829059829067,0.1578463714683362,0.8792277769509376,0.1841411261403129,0.125183895808586,2
0.7021367521367522,0.0222796758935676,85.53946706889329,2.712966336262272,0.0399893890246888,51.28205128205128,220.72649572649576,0.1331553054270404,0.8098914036880799,0.1719721049162081,0.0910730849222139,2
0.7162037037037038,0.0167756212333272,83.82210845502688,2.009601343082676,0.0239276171859533,56.48148148148149,226.38888888888889,0.1049069354587872,0.6198396130372897,0.1507931532786232,0.0848909072774336,2
0.7029914529914529,0.0039974972080918,85.35229403553232,0.4836093380264115,0.0040887781788555,43.376068376068375,267.7350427350427,0.3548087165021061,1.5827268556230365,0.4061847782387713,0.3280598322819545,2
0.7044871794871794,0.005717559042846,85.17401666197922,0.700113361221735,0.0068979927896997,40.81196581196581,262.8205128205128,0.3685759998728348,1.660385594534577,0.410896320291925,0.3169838944923625,2
0.7057539682539682,0.006678584396709,85.02319662412742,0.8173748797662564,0.0073895796862353,43.84920634920634,268.45238095238096,0.3715593851365856,1.6548670942787662,0.404246358783392,0.3204061759006152,2
0.7042735042735042,0.0043054362563269,85.19734588746377,0.5187360656060266,0.0051967463705194,45.51282051282052,268.3760683760684,0.364344650864861,1.636518010200258,0.4091852305347376,0.3038966013862899,2
0.7004273504273504,0.0137318538573159,85.69469672649578,1.6697280373280965,0.0199343056866768,50.64102564102564,268.1623931623932,0.3296002339325539,1.515960234298129,0.3922039221591371,0.2536803965302232,2
0.7014957264957264,0.0035498392576573,85.53372103508592,0.4337646898478076,0.0040093768693724,41.66666666666666,264.5299145299146,0.3741950179647531,1.6801734891930202,0.4131792975938435,0.3256683514800292,2
0.7001984126984127,0.0095341379180428,85.70638063932394,1.2034675981735148,0.0123986872447897,48.61111111111111,271.8253968253968,0.357045811103184,1.6000250512636598,0.431650897726372,0.2767017664182015,2
0.6992063492063492,0.0213475835814488,85.89405850494339,2.7060778260021348,0.0290621856761892,47.22222222222222,263.09523809523813,0.3448993681950977,1.5791150863970635,0.4208502162529131,0.1568462875164574,2
0.706196581196581,0.0142539145984255,84.99641090612111,1.6975161265137624,0.0256600119639833,44.65811965811967,266.45299145299145,0.3407413197401884,1.5305831548631774,0.4187936879283236,0.1572755386944042,2
0.704059829059829,0.0044411559168433,85.22341164988971,0.5360551349489323,0.0047439586879442,42.73504273504273,266.6666666666667,0.3601100143891228,1.6093056104844388,0.4180464956583167,0.3066144214628181,2
0.7014957264957266,0.0090250906333089,85.5457013734879,1.1021233114656392,0.0147858513172882,47.86324786324786,270.94017094017096,0.3688552925761575,1.653945587818084,0.3991693318510556,0.3109264146761283,2
0.6944444444444445,0.0216697189547238,86.48388677669583,2.6903857590658182,0.0358609569093279,48.01587301587301,261.9047619047619,0.3254042998919182,1.4998008589454166,0.3818691541982048,0.1549536925102704,2
0.6698412698412699,0.0460266143828162,90.07545844175893,7.339182448049793,0.0456565484662797,39.88095238095237,200.00000000000003,-0.102866874589976,-1.5665831465925495,0.1487082645980258,-0.3216390352238977,2
0.6851190476190476,0.0193480360207025,87.64434599590604,2.42088020645642,0.0271401168921446,49.007936507936506,244.44444444444449,-0.0546268525271561,-0.5215376301086599,0.155392256954036,-0.2176560165675922,2
0.6813492063492065,0.0295921082341304,88.22731734204721,3.8423087988520304,0.0597706521981944,45.63492063492063,246.2301587301588,-0.0750538121758312,-0.2616733540493091,0.144707189748015,-0.2274925541711849,2
0.6664682539682539,0.0231327424169922,90.13767794176422,3.1978166661336243,0.035009495388129,55.75396825396825,259.5238095238095,-0.0450219182075998,-0.5018750792572042,0.1675895380710614,-0.344320048969395,2
0.6462301587301588,0.0153086680086986,92.89794561804813,2.1858551088378606,0.0121813613792643,45.238095238095234,708.1349206349206,-0.0517057939624033,0.0281123636980193,0.1703263861510647,-0.2817811498243613,2
0.6398148148148146,0.0214846740922565,93.88315479342128,3.1614070633942077,0.0327663418307031,45.925925925925945,243.33333333333331,-0.0511329931635105,-0.194200493993577,0.1344221270535514,-0.2441415976575419,2
0.6494047619047619,0.0203902234389955,92.48209070705538,2.861597108804803,0.033510922940368,58.33333333333333,247.4206349206349,-0.0168170966193701,-0.1414237368818985,0.1500224592829723,-0.3015686663782211,2
0.6407407407407407,0.0263653241114287,93.79743251772352,3.7916714735758954,0.0417921391222826,65.92592592592592,251.29629629629636,0.0328342131146581,0.2056255709594842,0.2377349867042034,-0.1808423242553338,2
0.6404761904761906,0.0083804413023582,93.69645400706142,1.235064075591906,0.0107306662645211,50.595238095238095,230.95238095238096,-0.0966629059562166,-0.8322987798037633,0.1130745173673592,-0.2525292827315283,2
0.6411111111111111,0.0322222222222222,93.82847865730852,4.799662931888832,0.0593821064623109,52.40740740740741,235.7407407407408,0.0500337328207383,0.423838166948164,0.1527962031667169,-0.2160054779212478,2
0.6264814814814815,0.0251715649445128,95.92732781808832,3.844898868473889,0.0426084051623173,47.40740740740741,200.7407407407408,-0.007028348411452,-0.4126525316019779,0.1568920176035415,-0.2811513031354979,2
0.6253968253968255,0.0202186336553285,96.04046580937316,3.136868147222298,0.0367640401779478,57.53968253968253,220.23809523809524,0.0667978636697994,0.5024950967558659,0.1669866834566654,-0.1485368156906036,2
0.8115740740740741,0.0175621080911024,73.96591663737549,1.641452759674158,0.0185584586128011,41.89814814814815,256.712962962963,0.5170861375332955,2.3643635044627405,0.6026942320673738,0.1904907955328437,2
0.7761574074074074,0.0203005431992302,77.35736221664469,2.044635489106912,0.0170823581063512,38.65740740740741,258.1018518518519,0.5569954527421311,2.5381248353869883,0.6039828835504601,0.4695514887105441,2
0.791919191919192,0.0227048149424131,75.82840190042799,2.2019346532488897,0.0276245775343373,40.65656565656565,260.3535353535354,0.5618073373587429,2.53233959628456,0.6332781323172799,0.2190048562045069,2
0.8093434343434344,0.0145196530418839,74.15799961850912,1.3288947863138654,0.0200693242979871,36.61616161616162,254.7979797979798,0.5645610652605632,2.587346569434292,0.6163875570388793,0.4917446164461226,2
0.8366161616161616,0.0177595464368861,71.75092756407463,1.5764091737776624,0.021118419787498,38.131313131313135,254.79797979797985,0.5227488400156048,2.3842600210664884,0.5743627242799835,0.1803909167144185,2
0.8074074074074074,0.013094570021973,74.33164221213123,1.215831758320831,0.0127568999397121,36.80555555555556,260.8796296296296,0.5719959149426491,2.5536600621324186,0.6054754757596884,0.527228646303143,2
0.8053030303030302,0.0126716356467619,74.52491863823455,1.1954001559052525,0.013465777381712,35.1010101010101,246.969696969697,0.5783209039875922,2.852140161491321,0.6182544139185753,0.4596118907521022,2
0.8020833333333334,0.0169772375447304,74.83891494949602,1.593648012159406,0.0224108158912462,36.57407407407407,258.7962962962964,0.5494566435478953,2.472403649616817,0.6005751550108024,0.5020572364677575,2
0.8032828282828283,0.0340169418289586,74.8259517291648,3.130566819608734,0.0215344971592381,38.63636363636363,259.59595959595964,0.5423146145322145,2.4538059677258186,0.5681857600879894,0.4698528032071905,2
0.8381313131313132,0.0129257413051209,71.60495751033076,1.1108469256464129,0.0204313061649258,42.17171717171718,259.09090909090907,0.5295452799851791,2.41759614432364,0.5993645696902692,0.2129938658095277,2
0.8118686868686867,0.0156728491405887,73.93086792507228,1.4139690182171956,0.0208425905358933,36.86868686868687,258.08080808080814,0.5431299959228578,2.4551156013118405,0.5835318133835178,0.4704936382320909,2
0.7888888888888889,0.0131272656284794,76.07744329135328,1.268424244308728,0.0165738154335291,36.11111111111111,258.7962962962964,0.5868647161585763,2.635799778174132,0.6155033359227894,0.5556187337471212,2
1.0117283950617284,0.092079856066943,59.85830563841844,6.15450891729702,0.0985328327807664,56.17283950617284,233.95061728395063,-0.0573927817940552,0.9891979147527744,0.4129903042239833,-0.1619781952977605,2
1.007716049382716,0.0747168612719346,59.93543967319161,5.333231469288784,0.1219298902982699,57.71604938271605,243.20987654320984,-0.1335645510671728,-0.6407935447135109,0.0550407907974277,-0.3221367165560848,2
0.980246913580247,0.1185434323094181,62.284519200111454,8.901378224204937,0.1752010529380953,70.37037037037038,239.81481481481484,-0.1178036880723972,-0.5178402122265597,0.0370557270359637,-0.3985795257705669,2
1.017901234567901,0.0539602923776613,59.13153348522261,3.526703396366867,0.0904485564175829,54.01234567901235,233.02469135802468,-0.1130911582094913,-0.5925646986529254,0.0351956161721573,-0.3482721985997232,2
1.0253086419753088,0.0597411604260195,58.74844102643356,3.9415126543944257,0.0931436150505838,47.22222222222222,247.83950617283952,-0.1993175419470318,-0.9463114927702516,0.0297813726435677,-0.3498684302561184,2
1.002469135802469,0.0908204906959576,60.48862252769703,7.027698929252451,0.1049599423883838,54.93827160493827,241.04938271604937,-0.0958511368035364,-0.4852683528529682,0.069912776988145,-0.1613186296141356,2
1.0288194444444445,0.0788607331895762,58.73410320895744,5.41441778277276,0.1266861583443486,89.23611111111111,229.86111111111117,-0.0299734404219057,-0.0624953179208601,0.0595978800408495,-0.3641232955843208,2
1.0,0.1025982750131078,60.73958779120694,7.223555210570447,0.1761317022662584,70.06172839506172,246.60493827160496,-0.1072860412307742,-0.4842805901718492,0.0395151335684842,-0.3919020229909646,2
0.999074074074074,0.1268484725151386,61.23302235606348,9.286015625815349,0.2172223998294244,55.55555555555556,222.5308641975309,-0.1025396601331406,-0.4839014151081742,0.0494506917868006,-0.3687284482305337,2
1.0182098765432095,0.0697599144478458,59.25422505179768,4.7837443842071465,0.1113409082031675,57.407407407407405,234.56790123456796,-0.0907042270722712,-0.4537587233973716,0.0368356107018525,-0.1448939821766603,2
1.0009259259259258,0.1029153233780481,60.67742608234912,7.1365332416797775,0.174856643222419,42.90123456790124,216.04938271604937,-0.1996118047899988,-1.1786035524454097,-0.0825185465418703,-0.4119901339705949,2
0.9394444444444444,0.1909317633910212,67.88952064494995,19.79782056629415,0.2494399591281969,97.7777777777778,236.66666666666663,-0.0991199680019392,-0.6533446394107628,0.0443499968924403,-0.1545940743394269,2
0.721153846153846,0.0285893922531527,83.33720859075399,3.466108668077692,0.0266676311553975,637.2685185185186,275.46296296296293,0.4598901655007506,-0.6271384620890953,0.6001861051252263,0.2060879307268552,2
0.7487179487179488,0.0116643966358599,80.1564669142815,1.2506556700555291,0.0090721842325303,172.2222222222222,287.60683760683764,0.4831355772157352,1.2194560513255548,0.6188505415098604,0.2278805059434049,2
0.7631944444444444,0.0082655421626653,78.6261995394475,0.8564508198334663,0.0098387675448374,67.12962962962963,281.94444444444446,0.5572201902925739,2.5939177506513293,0.5928104162840874,0.5236671196941844,2
0.7641203703703705,0.0093140738605234,78.53312974194523,0.9410666350561376,0.0094012679136294,73.61111111111111,287.03703703703707,0.5636101385879643,2.6403665226499595,0.6015917963943329,0.5077244993682444,2
0.7861111111111111,0.0061069009066078,76.32969347867937,0.5928200862699693,0.0091363901591543,705.2777777777777,281.1111111111111,0.4013898972437427,0.6100174500197502,0.5858983047489242,0.2098483838463936,2
0.7687500000000002,0.03089302280491,78.18756068365904,3.4574691673524303,0.0243461061445059,65.50925925925925,280.5555555555555,0.5471564301109021,2.544932653719693,0.5885327157535932,0.508284221882881,2
0.7604700854700854,0.0155675261539205,78.93306992543799,1.6859758487166072,0.0124484533886562,283.9743589743589,278.4188034188034,0.3183425887924879,-0.3698456165513409,0.6015792223123622,0.209467463575403,2
0.7685185185185186,0.0189871265318609,78.1232235383615,2.0621940724191767,0.0199078967914164,57.638888888888886,269.212962962963,0.4777588353762881,2.25693913232857,0.5418358724272797,0.3763436383959648,2
0.7604700854700854,0.0383533616412626,79.11971274608815,4.394735307429823,0.0268478604951814,71.36752136752136,279.9145299145299,0.526196809405784,2.457825962505685,0.63612154033083,0.0889536371387946,2
0.7487179487179486,0.0299892229893897,80.27345088506475,3.410940837762532,0.0170103454359943,66.88034188034187,271.58119658119665,0.5378387293120046,2.6098254957711053,0.601874640600899,0.1806469357364859,2
0.7407407407407408,0.009777181519418,81.01415113303301,1.0722378195832687,0.0086634933325295,854.5454545454544,282.32323232323233,0.4183702188510127,-0.4284193180707806,0.5573554921641029,0.175368891940763,2
0.7749999999999999,0.0098861835666956,77.43210857235692,0.999873318563566,0.0186752625710795,276.38888888888886,276.8518518518519,0.3449131193872949,-0.4882201751781156,0.6047097608312804,0.2126082209936559,2
0.6744047619047621,0.0161007962132288,89.01816936902193,2.129983391361689,0.0277136010779969,72.42063492063492,181.74603174603172,0.0640533757999499,0.7859067668847534,0.1263448193809491,-0.0277445204485896,2
0.6716269841269842,0.0154367119584999,89.38259991405786,2.058654260535367,0.0215854273588457,94.84126984126983,171.82539682539684,0.0533195858815209,1.049475552831167,0.1029648178687742,0.0181836784320656,2
0.6767857142857144,0.0208030770467556,88.7385951478742,2.7425806647101743,0.0295783923083719,86.1111111111111,177.9761904761905,0.0865392918051424,1.2447930982729822,0.1268537163643055,0.0172369640901669,2
0.659074074074074,0.0271686295334715,91.19779519456876,3.910832455898774,0.0424074362884308,62.037037037037045,164.99999999999997,-0.002584888647256,0.4498455960339632,0.1432736086211765,-0.5422863962274259,2
0.6546296296296298,0.017022941028565,91.7174575248273,2.4079300415992795,0.0218217890235992,-585.9126984126985,-493.25396825396825,0.0815642930484864,1.2413382400460506,0.1344115415962656,0.0301870670465814,2
0.6708333333333334,0.0192664758050633,89.51358199576619,2.5282983726726056,0.0344454783412517,83.33333333333333,157.93650793650795,0.0617104453779658,0.9031735384955316,0.1026826109552486,0.0056628416182173,2
0.6666666666666667,0.017410643625778,90.06127211515918,2.347267486055376,0.0275955561612382,74.8015873015873,149.60317460317464,0.0469228694606208,0.9394051553014504,0.1083052951859694,-0.044849280626921,2
0.6625,0.0215101694500699,90.6653187700648,3.059904782381688,0.0356812016074031,93.05555555555556,165.0793650793651,0.0104149856535569,0.5287725070286068,0.1180096808720569,-0.511481770029137,2
0.6660714285714285,0.020498058029189,90.16711095326534,2.8183057628836097,0.0269095068229592,64.08730158730158,154.7619047619048,0.0407911395823838,0.2972082223550396,0.1138971403790295,-0.5236961310129215,2
0.638888888888889,0.0254154197803268,94.06030494671322,3.704379465419413,0.0344196216042102,65.27777777777777,148.21428571428572,0.0775677823194698,1.4784862581615204,0.1455748337387285,0.0415063175112993,2
0.6466666666666667,0.0154892767898714,92.83712581078753,2.2393086288639235,0.026121240858464,72.77777777777779,168.70370370370372,0.0698695165344736,1.0616265882292624,0.127347995434595,0.0160801382256005,2
0.651984126984127,0.0092384497831926,92.04528804475548,1.3061750078650498,0.0124742533197291,131.74603174603175,253.57142857142856,0.0704957494049149,0.5939941027207531,0.0984559735198262,0.0477458645640378,2
1.0416666666666667,0.2476847525091409,66.74875401039895,38.4910067176657,0.2723090139420179,48.456790123456784,184.5679012345679,0.2674428353218768,2.1397298494060677,0.3477395433058681,0.0461679352364221,2
1.1354166666666663,0.009186636496752,52.84749435935079,0.4273572677141931,0.0152506975004568,50.0,193.75,0.3276579289977921,2.49691796321137,0.3550898886888647,0.3062860295184615,2
1.1714285714285713,0.0206120141479691,51.23518840610882,0.8909883107021831,0.0383225964566201,45.23809523809524,209.9206349206349,0.3118904679141052,1.980655991400415,0.3344483403850211,0.2764844805144664,2
1.1690972222222222,0.0108863995879103,51.32610973715897,0.4788165014298564,0.0157134840263677,50.69444444444444,189.93055555555557,0.2949112140520902,2.314928257733224,0.3463011524991104,0.2490192738534846,2
1.1440972222222223,0.0107974387537959,52.44774349711916,0.4925069488755662,0.0202225274702236,47.56944444444444,218.75,0.3290638053453979,1.923672670122956,0.3664316175852231,0.3057155213201934,2
1.090625,0.2133015813863403,59.0517613535718,20.660227983891307,0.2408991643974868,57.63888888888889,244.79166666666663,0.2731267561913835,1.5237387716456317,0.3701832697485961,0.0389843881029338,2
1.2,0.0086736083311088,50.00261802061691,0.362210977656308,0.0086577080274886,53.125,200.69444444444449,0.2682782355659702,1.911396293445947,0.3350393729283337,0.0634570326790218,2
1.1884920634920637,0.0103327115605488,50.487988144807446,0.4426206596257198,0.0184256932797521,49.20634920634921,215.0793650793651,0.3168495121158755,1.9665955619226505,0.3440031094833153,0.2342276052063383,2
1.0089506172839506,0.2743485168038246,74.4166578700928,55.9436291490408,0.3920678599300425,46.60493827160494,213.58024691358025,0.3037085377275736,1.9345196615626823,0.3740076124840947,0.0007070767567709,2
0.9648148148148148,0.2526709175837072,73.69036027437197,45.12553856643487,0.3404322211868645,53.7037037037037,191.0493827160494,0.27991750018823,2.3352720356336465,0.3286091071018249,0.094774985559737,2
1.100347222222222,0.014922478435378,54.53823781303564,0.737120164291707,0.0168639121911712,49.65277777777777,200.69444444444449,0.3050312033121339,2.087125477323396,0.3646988954138743,0.0440069575053083,2
1.1520833333333331,0.036024200970397,52.12979208217087,1.606898375543443,0.0456435464587637,51.388888888888886,189.5833333333333,0.3000085409852007,2.376343024784929,0.3300550594589748,0.2881218067785638,2
