RR_mean,RR_std,HR_mean,HR_std,RMSSD,QRS_mean,QT_mean,ST_amp_mean,ST_slope_mean,ST_amp_max,ST_amp_min,label
0.6174074074074074,0.017552586090478196,97.25879502047378,2.7534629501397356,0.023145502494313786,85.92592592592592,202.2222222222222,0.24279080052590366,2.121783469155422,0.2826652356974432,0.1779207674486665,0
0.6270370370370372,0.01627523892053322,95.75281372762292,2.4929504007642653,0.021271840109822398,82.03703703703704,205.37037037037038,0.2569926551186143,2.1318357905106695,0.2892819795849265,0.20361900880392808,0
0.643452380952381,0.02377063623230108,93.37623654218324,3.5013748750470777,0.029447669554062222,85.31746031746032,208.53174603174605,0.26563149569616556,2.17396865242655,0.3421457134285578,0.2007682540715725,0
0.6322222222222222,0.01811031581984836,94.98327257283326,2.7939293133329346,0.020826718526583514,-551.1904761904763,-420.03968253968253,0.26868225813807467,2.1203325429580393,0.3055977004908459,0.23063924316810536,0
0.642037037037037,0.01653860263834527,93.5134747237187,2.3661835631013424,0.021745886918762294,86.4814814814815,212.59259259259258,0.2628204079554385,2.139278152232049,0.3211152747496473,0.2221787303397769,0
0.61,0.019319705712214783,98.45783687034,3.0705751172169493,0.033101042466147194,86.48148148148147,211.29629629629633,0.26651738454303575,2.214120474632469,0.3131636494728551,0.2068448588798673,0
0.628888888888889,0.017620835030170777,95.48048879168573,2.6471947291565714,0.022603378031008956,88.14814814814814,210.74074074074076,0.23689121425184587,1.9953785080280182,0.32916197141395886,0.19886390398521003,0
0.5914930555555555,0.022598138810544052,101.58596470930834,3.8704094288688586,0.020873418226954734,85.76388888888889,196.52777777777777,0.2789486468841834,2.892387650656114,0.4018617406479062,0.21571903404191967,0
0.5871527777777779,0.03983079325157086,102.65843380907404,6.943836907473534,0.03699766425727208,78.99305555555556,207.29166666666669,0.24755189488947638,2.015661881303735,0.42209974249667676,0.18279283327016335,0
0.6015625,0.01829353714177242,99.83375202346471,3.077385617360844,0.022962216236365237,90.79861111111111,213.19444444444446,0.2543381979851851,2.2472658759155495,0.35755844235855405,0.19416550187882337,0
0.6137037037037038,0.027111768864718815,97.96133277987857,4.404910866803888,0.03222359055660602,90.92592592592592,205.5555555555556,0.2516574334607157,2.2571012782280513,0.3182017866750927,0.20487839294818694,0
0.6261111111111111,0.020782035610479217,95.93394912715884,3.144477107035996,0.02595189553451184,85.0,209.99999999999997,0.26361747435376687,2.1846424361463272,0.3188317549852784,0.21136971140724178,0
0.9703703703703703,0.028054180384339083,61.88338441719715,1.7757594531748055,0.051883877345424545,80.24691358024693,324.07407407407413,0.7273826002220379,2.9318175168734446,0.9161774493580527,0.3729825727789009,0
1.019135802469136,0.2882336004768264,61.819683922119275,10.469003357002247,0.3176109823528008,57.09876543209876,308.0246913580247,0.806833234551202,3.2176862883331108,0.8511583586501762,0.7371536970633626,0
0.9372222222222222,0.016015039228221766,64.0377535163097,1.0994106426197363,0.02494850663945831,62.5,319.16666666666663,0.8170556872683864,3.1829722113394707,0.905761026843334,0.7415791534064488,0
0.9555555555555555,0.017519340674467112,62.811929832627115,1.1583308081555137,0.02252399269475947,74.38271604938272,326.5432098765432,0.6904406736544213,2.7209525280679125,0.8189816427530504,0.35298690802352733,0
0.9677777777777778,0.028059680664831957,62.049171144293254,1.775934022405001,0.04930935909516422,67.77777777777777,322.22222222222223,0.5941994740818091,2.3177905210845964,0.7549034202314933,0.2678659303731802,0
0.9407407407407408,0.03612298000579846,63.872645822055105,2.425714273822266,0.047639091350395846,63.27160493827161,317.9012345679012,0.7647276745204996,3.0032753042167792,0.8460951232881669,0.7255180270508919,0
0.9080555555555556,0.03839869628702529,66.20124179794973,2.9835070647430193,0.043764082585542485,73.33333333333334,309.1666666666667,0.7355111275757118,3.1088541143930515,0.8957110128558445,0.289729712754232,0
0.9225000000000001,0.04607177036636816,65.20971055590715,3.389627296301724,0.07481114769157098,77.49999999999999,315.27777777777777,0.6761081168192739,2.7946626869363054,0.8804643709616853,0.3743520257387238,0
0.9152777777777776,0.018685588954269035,65.58163710539506,1.3607803991806606,0.023350963357256456,80.83333333333333,317.5,0.7577098532442175,3.1487896465637744,0.9995954702597317,0.2587691492480939,0
0.9286111111111112,0.034917230173124585,64.7036057112336,2.4202934594844328,0.05219791922020517,83.05555555555556,298.6111111111111,0.6743256072924806,3.320339547189259,1.0142533207328055,0.17597558542540548,0
0.9783950617283951,0.020942216609490572,61.352816457439985,1.3036702766206352,0.029804532963715137,72.8395061728395,321.2962962962963,0.7953636910244715,3.141038791313965,0.9551417412002652,0.3122872583183127,0
1.0003086419753087,0.017879936244395378,60.00031646328273,1.0536700623083346,0.02685983278585241,75.0,333.3333333333333,0.8491719995927364,3.2872610549111143,0.9359071169360658,0.7776994423435624,0
0.6212962962962965,0.021604056419392424,96.68823757077904,3.3373748658222895,0.02759862864982554,74.44444444444444,277.59259259259255,0.38656404249204074,1.917357272451181,0.49027836784095546,0.21585561278593554,0
0.6064236111111112,0.03112968737945489,99.20502579918652,5.157135537153694,0.027962349760262042,72.56944444444446,280.2083333333333,0.38280906493025024,1.8445659688219114,0.4529123447854794,0.2757874308919481,0
0.6567460317460317,0.03180549985637123,91.58368435279691,4.638028995599003,0.02731451301199823,76.19047619047618,274.2063492063492,0.40332675481909347,2.0427166800011802,0.46505061461437136,0.34990992479081423,0
0.7743055555555555,0.19673624593084763,80.45045899354237,11.686862762432183,0.3070109964872355,76.62037037037037,274.537037037037,0.3978298485694219,2.0170015169174422,0.45921183281954836,0.300081192252153,0
0.6431481481481481,0.04734588021268436,93.81448715001622,7.118355549143946,0.028666343667430965,75.55555555555556,274.81481481481484,0.4832912538610496,2.4862728990797858,0.707452777517851,0.34136917168551195,0
0.6022222222222222,0.04872024785897881,100.21808673167298,7.2748473390059845,0.030789150382969567,386.7063492063492,811.7063492063493,0.46483443683822184,1.6203179612223215,2.193117350520566,-0.6556043888547997,0
0.6694444444444444,0.021284791003022042,89.71745870533816,2.8599561210268085,0.02697559658313684,86.11111111111111,275.59523809523813,0.3849757179558734,2.0520406235625708,0.6845017143886193,0.19579101603996135,0
0.6888888888888889,0.02049946146189992,87.17494824475025,2.6284246742528,0.03206498994615331,75.42735042735042,276.2820512820513,0.37562539190116995,1.871379744630364,0.4418763923085307,0.29238733681464313,0
0.6876984126984127,0.013757885574095022,87.28256322108511,1.7506081816491283,0.019732301505325157,-593.1623931623932,-413.67521367521374,0.3428282817884789,1.5463791653734487,0.4834155425083011,0.10920974492624096,0
0.6797619047619048,0.021244061610038372,88.35209444036046,2.7495694251825724,0.022500923269017526,79.56349206349206,275.3968253968254,0.39889265201595464,2.034920370948909,0.5631971367740911,0.3264355421703968,0
0.6664682539682542,0.016911700267746056,90.08489844363508,2.2910370648729472,0.02421610524189263,83.73015873015872,278.76984126984127,0.4134967426168652,2.125808778150318,0.47094583274835916,0.3539099312791324,0
0.668452380952381,0.038613068679066574,90.0532851842053,5.094341888169229,0.02608063324000073,85.7142857142857,272.81746031746036,0.44510974729120034,2.3929282964640524,0.6180237389778285,0.3837300852737065,0
0.647420634920635,0.023037243772966343,92.79239496133776,3.288354956470461,0.03695592971013908,86.90476190476191,199.60317460317464,0.7046244351020524,3.890142181186505,1.0430394712315734,0.08550309487954356,0
0.6266666666666666,0.022425000745512,95.8673670664432,3.430866823907221,0.030923113961441685,76.48148148148148,199.8148148148148,0.767244861312392,4.687705378468838,1.050596761587312,0.09451115534585743,0
0.6246296296296296,0.020129893691409176,96.15765295539632,3.126950896713858,0.023523413230601482,122.59259259259255,203.70370370370375,0.4881143544095074,2.3999319275502446,0.9594972354049953,0.0798787905455485,0
0.611111111111111,0.024448652836391707,98.33467493843403,3.8261166449537853,0.03323397891461925,85.37037037037037,191.66666666666669,0.6366178002134457,3.58198925927651,0.9755783625187116,0.11005153157781145,0
0.6327777777777778,0.021111111111111094,94.92729763005494,3.2191649511593297,0.028656728928382235,106.29629629629632,197.5925925925926,0.5607073883532255,2.901305848494204,1.0200541014080595,0.08924487754329917,0
0.6266666666666667,0.025454712468053458,95.90105194527233,3.8522311082097342,0.04858559420987494,65.74074074074073,182.4074074074074,0.5504732339363982,4.360987198754819,1.0222784684868813,0.04529024108580536,0
0.6409259259259259,0.02278154139337124,93.7376237578961,3.466698287456053,0.03315095610465189,87.03703703703704,197.40740740740742,0.5951571714211867,3.17592862391569,1.0913879188820632,0.09920430426699652,0
0.6591269841269841,0.03767125170255816,91.34011077375679,5.441241249202225,0.02157167429764779,19.01709401709403,90.5982905982906,0.41342799301823463,2.1820629751792033,0.9763669329980101,0.057337465154580214,0
0.665873015873016,0.04330672478018509,90.50103222946929,6.073087583262907,0.03454012077309433,-350.64102564102564,-225.4273504273504,0.6679836343718654,4.437930454954837,1.035890012886501,0.0699896847009606,0
0.6589285714285714,0.04693162889113706,91.5239276734692,6.56872795077244,0.03921566008881312,61.50793650793649,209.12698412698413,0.6599774584888795,4.53858331270882,1.02362754491448,0.12452720166921545,0
0.6781746031746031,0.03680435222437124,88.72587369787779,4.6686750507987735,0.038289024311361726,186.32478632478632,217.94871794871796,0.6333351225694663,2.8910067243044293,1.1567543466096057,0.14014207044494711,0
0.7179487179487178,0.029969424602199556,83.71431421546474,3.4272186908137923,0.03025950858957071,85.68376068376067,207.69230769230774,0.6043037789195543,3.1602765132435504,1.0442262590843365,0.11937735845605074,0
0.6290740740740742,0.017358086156222943,95.45017047047595,2.606870221203625,0.02902934415155617,45.74074074074073,234.62962962962968,1.1086061726641085,5.873423600666452,1.2176927653811558,0.9565682581537551,0
0.6322222222222221,0.016905693394114383,94.97105120901773,2.533703236666776,0.023121677987233684,45.0,234.44444444444446,1.0732634738319209,5.6692904015956795,1.2206189706532056,0.8945534414365817,0
0.6235185185185185,0.013565367830972182,96.2736120258745,2.0926082313911145,0.02204792759220493,47.592592592592595,235.5555555555556,1.0738820615616098,5.693414795198772,1.2364818408740823,0.6235650100202248,0
0.6168518518518519,0.024055548427564306,97.41725983597335,3.82701687447082,0.04553474166406019,53.51851851851852,236.85185185185182,0.987951863410385,5.371075192243181,1.2552080246275121,0.44257346222402305,0
0.6032986111111112,0.013437769161817603,99.50259185813107,2.216478802633419,0.021718835579515795,46.52777777777777,236.80555555555557,0.9154079441314045,4.812250641885726,1.212581225552122,0.6994869047786254,0
0.5795138888888889,0.09783968112254093,108.1650958940363,27.811108519847416,0.0954278862884507,41.666666666666664,233.33333333333337,0.9734882149706514,5.052868861801347,1.458681516000535,0.653797773437404,0
0.6253703703703704,0.030443678462022943,96.17097377379442,4.684662514198437,0.044214434585885615,51.66666666666666,237.962962962963,0.9261699024736759,4.9843411163837255,1.2856759154420578,0.7219843951637919,0
0.6595238095238096,0.03264356240964891,91.19989738871159,4.554433294960481,0.020844014355995224,47.22222222222222,233.9285714285715,0.8759997828285756,4.6917906066566175,0.9766821286051155,0.5853991714485273,0
0.6696428571428571,0.03523767070386339,89.84110674776635,4.586998639972542,0.04288116045686329,53.96825396825396,239.88095238095235,1.0150169913244422,5.410473605563276,1.3365999460574187,0.4543506656538444,0
0.7192307692307692,0.1870906786940603,86.75575895178312,12.980720322048883,0.28276427057895664,47.64957264957264,237.82051282051285,1.0846184304759765,5.70295366840925,1.253683283598441,0.9668122236308689,0
0.6976495726495726,0.0202619993010764,86.07641638601096,2.5272108735283054,0.03433113081752297,49.35897435897435,236.32478632478632,1.0517557866962415,5.634231787155209,1.1541673986340228,0.974310247699806,0
0.6795634920634922,0.017618556049198677,88.35066541712561,2.2645817224834763,0.02449635126036579,47.81746031746031,239.6825396825396,1.1356814374492916,5.919124459949067,1.3278216784574994,1.0003145053716445,0
0.7652777777777776,0.06596369340581701,78.92812778211517,6.119034058792554,0.06648755400269665,48.14814814814815,297.9166666666667,0.7481168236707534,2.9962182151888808,0.794818569924886,0.660278011013212,0
0.7851851851851851,0.05462570607379236,76.7922010349746,5.43159593325566,0.04423086307134321,48.14814814814815,299.537037037037,0.7867219058360623,3.131572354405377,0.8378869060150457,0.7540980322961257,0
0.7641203703703702,0.04098922016103929,78.74513954484301,4.177314042239735,0.04480597903824617,50.0,300.9259259259259,0.786001934312849,3.1339558464776567,0.9074922232297145,0.7147881261022828,0
0.7548611111111111,0.0438344276491105,79.75305069441369,4.629429118235396,0.040314768802684656,49.76851851851851,285.8796296296296,0.866180237494422,4.681794675155342,2.194271963730903,0.7183228566477058,0
0.7578703703703705,0.043830149002612576,79.42839137236906,4.494469481155097,0.04218532412188196,48.379629629629626,300.69444444444446,0.8043750453597082,3.1904542941905913,0.8749942598858623,0.6544695286384079,0
0.7181623931623933,0.05832433166825127,84.08568827242051,6.648017360088281,0.03127313958110472,48.07692307692308,299.1452991452992,0.7680853683270585,3.0624938175457106,0.872688496410321,0.3946074711071652,0
0.7367521367521369,0.039751630470509246,81.67893929585179,4.460104822825501,0.03501726499509386,51.70940170940172,297.4358974358974,0.7944912230284005,3.230535429019563,0.8741112184033906,0.5591049847350429,0
0.7132478632478633,0.038661635242108354,84.37166552027387,4.607010492405338,0.030880011380837593,49.358974358974365,305.982905982906,0.7494505590696511,2.924245465108505,0.8172570244617181,0.656675938103529,0
0.7074786324786324,0.03776433608566731,85.04426079690823,4.424581442335499,0.0358788829074029,54.48717948717949,296.36752136752136,0.7203533029719106,2.9816082392024046,0.8468830638361408,0.63528255097619,0
0.6581349206349205,0.0711649124174634,92.09125673509796,8.60075756056553,0.042756404917199176,50.46296296296296,1573.8425925925924,0.7208102824467368,0.5694262965221486,0.81606842829755,0.5542417313368089,0
0.7188034188034188,0.058095300325720974,83.99714785477877,6.52001318244445,0.04076966565793841,50.21367521367522,301.9230769230769,0.7363398096738536,2.926291611701986,0.8109969339899277,0.661235860284465,0
0.7537037037037037,0.027715980642769943,79.71179357443354,2.8543237578745244,0.027164957290626686,50.69444444444445,300.6944444444444,0.750250612982207,3.0035566670633798,0.8403355850683643,0.6643969668649004,0
0.8118686868686869,0.01895453939878303,73.9441767407593,1.7391520421466435,0.02442233848925919,61.363636363636374,260.3535353535354,1.6013368606772354,8.046573275205754,1.8411789676836836,1.4520298114029067,0
0.7937499999999998,0.07455392895780388,76.26522713953506,7.20329381239495,0.03991257280624074,62.49999999999999,261.8055555555556,1.59075449396391,7.981560464670665,1.9535065390911386,1.467262758279916,0
0.8444444444444446,0.03232915034207717,71.15715687659156,2.7329055162884885,0.031143336484831034,59.595959595959606,261.61616161616166,1.5342264175717026,7.595171915915807,1.618567263957066,1.438916173806537,0
0.8156565656565656,0.05573547541808167,73.91569670655117,5.206513294744826,0.023911488018508165,60.1010101010101,261.11111111111114,1.5191315466513375,7.563695418882213,1.6419839246800305,1.3847618636690024,0
0.7881944444444445,0.036077708910723726,76.28810692779997,3.602109296056446,0.026801008406912314,60.18518518518519,258.56481481481484,1.616480602732538,8.138076943609915,1.9776508157109678,1.3738778535248943,0
0.7539351851851851,0.043233775908272154,79.83963427161294,4.4904988660318095,0.030151134457776355,57.175925925925924,254.62962962962968,1.538894339845273,7.802157689710943,1.691819578174158,1.3652436390056082,0
0.7228632478632478,0.035441755754897976,83.2026500110964,4.072658482578936,0.021989522383403532,58.97435897435899,252.35042735042737,1.5056966286295932,7.7847387797625816,1.6391410305565408,1.4090511337086498,0
0.6938034188034188,0.04768070348671406,86.8723143593896,5.723408937603847,0.023199018178458437,58.119658119658126,245.94017094017096,1.5275666625669921,8.566958353104104,2.0609192420191746,1.270578482755824,0
0.7606481481481481,0.07144195078496661,79.54913003988015,7.134906137927418,0.03959496107790664,59.49074074074073,253.00925925925927,1.4128031395503209,7.300757503655835,1.6181453150136291,1.2076362969971564,0
0.8027777777777778,0.04245880025879661,74.95389332956853,4.039372532292999,0.029606472432164965,61.11111111111111,258.8383838383839,1.5372908033989225,7.772394358818178,1.638087278408054,1.3985493251191219,0
0.8238425925925924,0.04199650824044274,73.01483105295692,3.6411185447777514,0.038435305739290375,-729.7979797979798,-561.3636363636365,1.4939479444731132,6.435040803142737,1.7082087151631828,0.9149548957677456,0
0.8616666666666667,0.01850091756149635,69.66444083826286,1.4882260164360577,0.02133651596630168,60.833333333333336,262.50000000000006,1.5442705756090311,7.6560915472522835,1.6966680213351006,1.2762388497573518,0
0.8313131313131312,0.02661956354162513,72.24786054334838,2.2774451752526694,0.04031128874149274,95.70707070707071,272.22222222222223,0.6461624125421701,3.6836675866732893,0.6941929483114317,0.5898968462370999,0
0.8315656565656565,0.029853569103296267,72.2451534266051,2.567955772669707,0.03948941098885769,102.77777777777779,274.74747474747477,0.6582207383743689,3.865908543443112,0.7057456585608752,0.6291880249887112,0
0.8444444444444443,0.02484519974999766,71.11467217418273,2.109218447584192,0.03839970100192235,99.74747474747474,273.73737373737373,0.6681240956252876,3.8563348578718935,0.7010852863030221,0.6319616356467815,0
0.8608333333333332,0.03163375482683716,69.7930848208143,2.5369728309246073,0.046045617626505,110.83333333333333,275.0,0.6905571715259907,4.233013323202343,0.7179393865134551,0.6525264974922996,0
0.95,0.25422358196994554,65.95505169326304,10.508920355579285,0.39145537598232005,103.05555555555554,275.55555555555554,0.6920422985341708,4.037091638471301,0.7605753887613126,0.631734737882991,0
0.8516666666666666,0.023934065809486673,70.50609267508544,1.9934178505386024,0.02832788618662656,105.83333333333333,278.61111111111114,0.6701414735011245,3.890180369876611,0.7404623816227383,0.5857488841706256,0
0.7749999999999999,0.04701753022169655,77.71059034481516,4.808338678557092,0.039023935789899926,102.3148148148148,277.0833333333333,0.6937100541936493,4.010676321790339,0.7653351876068185,0.632421118262041,0
0.8250000000000001,0.03282439759448874,72.84514973836491,2.9654531326503046,0.028733556757746137,101.01010101010101,277.52525252525254,0.6627527152159162,3.763061362220696,0.6912737009874117,0.6303371020781199,0
0.8436868686868686,0.03149588248013912,71.21560720487774,2.659003521877076,0.03685138655950443,102.52525252525253,277.5252525252526,0.6914805332151701,3.97019464532308,0.752245672917714,0.6647273697223777,0
0.8616161616161616,0.01648972496698434,69.66221874982973,1.3401118401177412,0.023057228854941245,104.04040404040403,279.54545454545456,0.6900634922583516,3.9593697413329845,0.7262943807561522,0.6359138877400089,0
0.8497474747474747,0.030416454393764742,70.70380173565053,2.6464785944221627,0.03807683914156144,106.06060606060605,281.06060606060606,0.697412616428575,4.051852155195205,0.7518464012758584,0.578940024900167,0
0.8238425925925926,0.030920762210289936,72.93112152006495,2.711807209241905,0.047289019898048956,-728.7878787878789,-547.9797979797979,0.6789261327541932,3.7866125428618314,0.7625450856029733,0.5660003896365335,0
0.9294444444444444,0.050141774309094785,64.74703361361058,3.570641478258424,0.05597067133224968,112.77777777777779,312.2222222222223,1.4313995456393578,5.234271735434895,1.7553774866811525,0.576912103495825,0
0.9019444444444445,0.06038776447895246,66.85302356834278,4.9432691357886975,0.05153674092620646,66.66666666666666,294.16666666666663,1.424330676410891,6.125216012486897,1.7655081854491756,0.5636082281376473,0
0.96,0.11075080469568038,63.34160730714141,7.3256760717409986,0.1288302069478359,367.5925925925926,314.5061728395062,1.1874214528952998,3.091782132310457,1.841022595867939,0.5222725719616825,0
0.9598765432098766,0.04577692209569581,62.64759817179371,2.9291205696578304,0.06471387642900968,115.74074074074075,315.7407407407407,1.5258825012163824,5.515372645906389,1.745706755310595,0.5850239965661048,0
0.9272222222222222,0.05856830980641533,64.9719194910479,4.160155297970823,0.06483465304865632,1489.2361111111109,320.4861111111111,1.7398039930033637,-0.22234453036132357,2.8301392772886587,0.2576287035664276,0
0.9230555555555556,0.052485300705278,65.21746286869279,3.8028580689811418,0.057496943319481575,712.962962962963,324.69135802469134,1.3040164292607253,2.387086802906337,1.7368078180699884,0.540266888869861,0
0.9011111111111111,0.05137312070396539,66.7986154162063,3.766450920972013,0.07246516593749318,295.0617283950617,326.2345679012345,1.4544970859922537,4.1990163529482665,1.6535679964607268,0.48953702928434817,0
0.9038888888888887,0.042422769334694445,66.527892155885,3.157354114757,0.05677670265465144,144.72222222222223,324.16666666666663,1.2975822710180198,5.331073264664594,1.6265871910535799,0.17079021599761512,0
0.8002314814814815,0.04672200110779874,75.22267986094117,4.192756190134644,0.03767030166304699,83.56481481481482,313.65740740740733,1.3385131819175096,5.771732688742001,1.5368317977162138,0.5136378573567013,0
0.7763888888888889,0.04485487572765318,77.53851839437253,4.462460925008361,0.026827168499433,813.1313131313132,301.76767676767673,1.242437139165988,-1.4108701736755922,1.7059918875856752,0.4580558664336156,0
0.9097222222222223,0.09258171232370961,66.66998544789998,7.074658793632451,0.06737025838363425,177.22222222222223,323.88888888888886,1.197010380751998,3.963867336666638,1.6994148136623568,0.5383774217015583,0
0.9130555555555555,0.07889133407791116,66.2054851854489,5.709810527383201,0.09376114474223572,138.05555555555554,296.94444444444446,1.2439873962397578,5.26956779995519,1.693999616422537,0.40270272542813856,0
0.8911111111111112,0.02508627089972363,67.38652115279213,1.9503386992708736,0.04282344844387843,100.55555555555556,200.0,0.35516078434099596,4.480670717319908,0.40653664682879787,0.2603051397378503,0
0.9105555555555556,0.05414600745629164,66.12297170738728,3.8585417997844833,0.04435755395186475,125.55555555555554,209.72222222222223,0.4058878990951024,5.384644809404103,0.4286928711436273,0.3776301004863434,0
0.8436868686868688,0.02171423517849057,71.16363495865642,1.8348820819882352,0.0342242062916921,119.19191919191918,218.1818181818182,0.4201087423223211,4.444769527013895,0.46811196439813424,0.36383256054354274,0
0.853030303030303,0.024171297172036095,70.39329446994026,1.9708403900944094,0.02948896006020048,126.51515151515152,226.01010101010104,0.4319060998640982,4.615065683821441,0.48288022344047116,0.3666561354583936,0
0.8361111111111111,0.03391744119268852,71.87890193904738,2.912911672209374,0.03979112128771107,104.7979797979798,187.12121212121212,0.3719496206051874,5.051977958322432,0.43904492501513803,0.3056876846798338,0
0.8232323232323232,0.05716448896020875,73.23297777045546,5.039235465867854,0.052952925751831824,120.2020202020202,200.25252525252526,0.3537391784695085,4.635501826919441,0.4624186335780956,0.03840406692725021,0
0.7736111111111111,0.03016373357270727,77.6760670680686,3.020998300046541,0.02958751215328651,109.95370370370371,206.71296296296293,0.44222675631945235,4.629985617713202,0.5409078165329911,0.28002209355589824,0
0.7817129629629629,0.03466584929987661,76.9039720578243,3.3747340107249015,0.03756774651216444,112.5,201.3888888888889,0.400672249361087,5.927073792142419,0.49975258190314864,0.34450738670303827,0
0.8262626262626263,0.022484676050052593,72.66973795840391,1.9702822067568628,0.0362922805790657,106.31313131313131,195.7070707070707,0.39497465887944133,5.961662051826437,0.4688499405474597,0.3220786419438936,0
0.786111111111111,0.03465734680039426,76.47623639893378,3.430412366116893,0.03797630544870195,92.3611111111111,185.1851851851852,0.4864828175046256,5.219748194972511,0.8214494541646347,0.03308219745622305,0
0.7738425925925926,0.038060933881457384,77.7296155785,3.9576347080281478,0.029800119765650907,86.1111111111111,158.33333333333334,0.42549772439063416,7.51891543665856,0.5932497852127812,0.02912845608181365,0
0.7456018518518519,0.03016284534603786,80.59849086198182,3.133310974116468,0.030943360879057427,89.81481481481482,185.87962962962965,0.5180813742200733,6.152001515023605,0.9785107193934457,0.023064330013085527,0
